# `D0` Integrated Spectrum / 1/GeV - 2024/07/18 01:46:50
# Magnetar:
#     R = 1e+06 cm
#     B = 3.16e+14 G
#     o = 1e+04 rad / s
#     chi = 0.95 rad
#     I = 1e+45 g * cm**2
#     mu = 1.58e+32 erg / G
#     tsd = 3.24e+03 s
#     lum = 1.54e+49 erg / s
#     E = 5.27e+11 GeV
#     spec = 2.2e+39
#     n = 3.09e+18 1 / cm**3
# Energy / GeV # Spectrum (1e3 - 1e3) / 1/GeV # Spectrum (1e4 - 1e5) / 1/GeV # Spectrum (1e3 - 1e7) / 1/GeV
100000.0   1.0604793718163359e+44   2.3302795737612807e+42   1.0857057271305981e+44
117681.19524349991   7.837359285421956e+43   1.872083138009055e+42   8.040003079453812e+43
138488.63713938717   5.774452772568101e+43   1.5039248588396057e+42   5.937230173368854e+43
162975.08346206436   4.242238997012285e+43   1.2081113661179283e+42   4.372986182287988e+43
191791.02616724887   3.1080264965763584e+43   9.70426289328706e+41   3.213039321553086e+43
225701.97196339216   2.2710865463995655e+43   7.79446965363454e+41   2.3554233267558566e+43
265608.7782946684   1.6553432226637293e+43   6.25995428338805e+41   1.7230679979826928e+43
312571.58496882353   1.203609739551966e+43   5.026972919408582e+41   1.257987717693051e+43
367837.97718286345   8.7308464556351e+42   4.036273210416561e+41   9.16739228280109e+42
432876.12810830615   6.318612102554177e+42   3.2402465637560067e+41   6.669001524798451e+42
509413.8014816375   4.5624208139249134e+42   2.600640041929541e+41   4.8435885198705176e+42
599484.2503189408   3.286872479722568e+42   2.0867179296011144e+41   3.51242466989613e+42
705480.2310718645   2.362554139770304e+42   1.6737846065959406e+41   2.5434228320974793e+42
830217.5681319735   1.6942659616228215e+42   1.3419977294757163e+41   1.8392346989250548e+42
977009.9572992247   1.2121709023427909e+42   1.0754146781741531e+41   1.3282971458166039e+42
1149756.9953977356   8.651718371714327e+41   8.612264353698755e+40   9.581263606316665e+41
1353047.7745798077   6.159757442156876e+41   6.891420730884415e+40   6.90315351375122e+41
1592282.793341094   4.374289055308499e+41   5.508942554261127e+40   4.968155843557847e+41
1873817.422860383   3.098051381907778e+41   4.398419743899254e+40   3.571821874703315e+41
2205130.739903046   2.188055591098336e+41   3.5065139429016404e+40   2.5653914776162515e+41
2595024.2113997373   1.5408751620482975e+41   2.7903940951173764e+40   1.8408046435843673e+41
3053855.5088334125   1.0818566774484115e+41   2.2156749841883446e+40   1.31968888800361e+41
3593813.6638046256   7.572273248736793e+40   1.754758340129237e+40   9.45286834614991e+40
4229242.8743894985   5.283357719836064e+40   1.3854953541945088e+40   6.765518501900035e+40
4977023.564332114   3.6745981808039736e+40   1.0901055921394176e+40   4.838381644892772e+40
5857020.818056662   2.5476150122803193e+40   8.543014764359988e+39   3.457608049886491e+40
6892612.104349695   1.760801587194037e+40   6.665799203449694e+39   2.4691185587254396e+40
8111308.307896872   1.2133565564577605e+40   5.176525764233116e+39   1.7620225553062244e+40
9545484.566618327   8.337474725359246e+39   3.999926456471456e+39   1.256596591364848e+40
11233240.329780266   5.713862315561526e+39   3.074793775670704e+39   8.955820506640001e+39
13219411.484660286   3.9062980476151296e+39   2.3512253737549815e+39   6.378941640399029e+39
15556761.439304722   2.6646382469682804e+39   1.7884988309945905e+39   4.540801311470212e+39
18307382.802953698   1.8140402242262365e+39   1.3534221746141084e+39   3.2304407949312645e+39
21544346.900318824   1.23278672842795e+39   1.0190308547809917e+39   2.2968826769080624e+39
25353644.939701114   8.364757754355791e+38   7.635324967611737e+38   1.632160808648718e+39
29836472.402833343   5.6679839257602704e+38   5.694306687643285e+38   1.1591242704999689e+39
35111917.34215128   3.836112265478106e+38   4.2278349943118464e+38   8.226810738420048e+38
41320124.00115334   2.5936453782081276e+38   3.1257039172434393e+38   5.835174301560878e+38
48626015.80065353   1.7520513904981468e+38   2.301507467389797e+38   4.135967599991997e+38
57223676.5935022   1.182637593014894e+38   1.688041624989832e+38   2.9293688918222313e+38
67341506.57750829   7.977526130902666e+37   1.2334387902945407e+38   2.0730433235981565e+38
79248289.8353917   5.378131452792284e+37   8.97958588573924e+37   1.4656597159113022e+38
93260334.688322   3.6238333565344654e+37   6.513587917115284e+37   1.0351156191334246e+38
109749876.54930545   2.440607971816985e+37   4.707696177611916e+37   7.301316307952151e+37
129154966.50148827   1.642981834647013e+37   3.389963461756534e+37   5.142548674562736e+37
151991108.2952933   1.1055463882581564e+37   2.4317953087581506e+37   3.6158378395739466e+37
178864952.9057435   7.435800482201313e+36   1.737485794474234e+37   2.537220243566438e+37
210490414.45120218   4.9988994497736157e+36   1.236122269551066e+37   1.7760920181759792e+37
247707635.5991714   3.358908782482922e+36   8.753762823943597e+36   1.2397697789847317e+37
291505306.28251696   2.2556494003142027e+36   6.167777201524155e+36   8.625074556734199e+36
343046928.63149124   1.5137612227059153e+36   4.321425571068623e+36   5.976867875843492e+36
403701725.85965496   1.0150972138026966e+36   3.008892135830321e+36   4.1226693584862364e+36
475081016.21027935   6.800837454645567e+35   2.0803359182517978e+36   2.828413850848099e+36
559081018.2512223   4.551431066230502e+35   1.4269856553747546e+36   1.928378267271419e+36
657933224.6575682   3.042110869265543e+35   9.701084837212889e+35   1.3053046863815981e+36
774263682.6811278   2.0301885550271804e+35   6.528783398669166e+35   8.762955717111913e+35
911162756.1154869   1.3523970901410271e+35   4.344035005035193e+35   5.828081826612889e+35
1072267222.0103253   8.989329386656485e+34   2.8535421559674147e+35   3.835588282761023e+35
1261856883.0660183   5.959739537796174e+34   1.847710500360657e+35   2.494917483325648e+35
1484968262.2544634   3.939081635883968e+34   1.17741045780086e+35   1.6021219011474071e+35
1747528400.007683   2.594094865753082e+34   7.370940861644217e+34   1.0145730698568483e+35
2056512308.3486514   1.701041883172135e+34   4.5255022076359155e+34   6.330224980677983e+34
2420128264.7943835   1.1098174733102912e+34   2.720341521982405e+34   3.8886802751577747e+34
2848035868.4357934   7.198007111487578e+33   1.5984569457015053e+34   2.351048873107873e+34
3351602650.9388475   4.6361169042681434e+33   9.168015236649893e+33   1.398859712798768e+34
3944206059.437648   2.961880152651627e+33   5.1262340892048833e+33   8.193281718234229e+33
4641588833.612773   1.87440921438016e+33   2.7910845592199926e+33   4.7264136564153417e+33
5462277217.684337   1.173196924710753e+33   1.478010949083453e+33   2.686826258354695e+33
6428073117.284319   7.249600609790088e+32   7.600389864045649e+32   1.5057541669215597e+33
7564633275.54629   4.413766875826282e+32   3.786571282067874e+32   8.319306798051606e+32
8902150854.450356   2.6414748476037077e+32   1.82143415506526e+32   4.529318359622303e+32
10476157527.896662   1.5497932764869367e+32   8.418136515729289e+31   2.4274411016464877e+32
12328467394.420633   8.887559463175792e+31   3.7135988197218917e+31   1.2786770906585962e+32
14508287784.95943   4.964678906264038e+31   1.5502956151478312e+31   6.606508915552637e+31
17073526474.706886   2.691110648739658e+31   6.056662540804886e+30   3.3393107942238753e+31
20092330025.65046   1.4094151320093452e+31   2.1824420756315182e+30   1.646037386720375e+31
23644894126.45407   7.098186376359108e+30   7.115318278151708e+29   7.882283784744861e+30
27825594022.07126   3.41971463418305e+30   2.0449359431795574e+29   3.6497871716733014e+30
32745491628.777317   1.567086888702123e+30   4.99555050159455e+28   1.6248346705123658e+30
38535285937.105194   6.787959670754135e+29   9.835872253703786e+27   6.905892258483203e+29
45348785081.28591   2.7595145259064263e+29   1.4373433486507402e+27   2.777660830224686e+29
53366992312.06302   1.043692664914158e+29   1.3555363419035713e+26   1.0455432442183866e+29
62802914418.34247   3.62939402023479e+28   6.281715826940577e+24   3.630374102554417e+28
73907220335.25775   1.14089510184814e+28   7.772355740139141e+22   1.1409107165030736e+28
86974900261.77835   3.1626888013389564e+27   2.4708059296086416e+20   3.162689368768849e+27
102353102189.90268   7.459206397190776e+26   5785526582150899.0   7.459206397917523e+26
120450354025.87787   1.4197586292907749e+26   0.0   1.4197586292907749e+26
141747416292.68076   2.008773755769163e+25   0.0   2.008773755769163e+25
166810053720.00558   1.837009224260642e+24   0.0   1.837009224260642e+24
196304065004.02686   8.257569360330107e+22   0.0   8.257569360330107e+22
231012970008.3158   9.860523986612309e+20   0.0   9.860523986612309e+20
271858824273.294   3.0719617648592005e+18   0.0   3.0719617648592005e+18
319926713779.73846   45564181228634.92   0.0   45564181228634.92
376493580679.2456   0.0   0.0   0.0
443062145758.3887   0.0   0.0   0.0
521400828799.9674   0.0   0.0   0.0
613590727341.3163   0.0   0.0   0.0
722080901838.5457   0.0   0.0   0.0
849753435908.6438   0.0   0.0   0.0
1000000000000.0   0.0   0.0   0.0
