# `D0` Integrated Spectrum / 1/GeV - 2024/07/17 22:45:28
# Magnetar:
#     R = 1e+06 cm
#     B = 3.16e+14 G
#     o = 1e+04 rad / s
#     chi = 0.95 rad
#     I = 1e+45 g * cm**2
#     mu = 1.58e+32 erg / G
#     tsd = 3.24e+03 s
#     lum = 1.54e+49 erg / s
#     E = 5.27e+11 GeV
#     spec = 2.2e+39
#     n = 3.09e+18 1 / cm**3
# Energy / GeV # Spectrum (1e2 - 1e4) / 1/GeV # Spectrum (1e4 - 1e5) / 1/GeV # Spectrum (1e2 - 1e7) / 1/GeV
100000.0   5.370236674653572e+34   4.811912330902517e+34   1.2555546406203417e+35
117681.19524349991   4.1715288419155595e+34   3.873241509495235e+34   9.973286079320591e+34
138488.63713938717   3.235482896179992e+34   3.1176414504699754e+34   7.920055337122861e+34
162975.08346206436   2.5054500491942534e+34   2.5094049484382755e+34   6.287899954048495e+34
191791.02616724887   1.9368335007681515e+34   2.0197898640162647e+34   4.990805129401646e+34
225701.97196339216   1.4945544679847032e+34   1.6256604167245896e+34   3.960255018304583e+34
265608.7782946684   1.1510456027252252e+34   1.3083935459677375e+34   3.141687451955928e+34
312571.58496882353   8.846629768116154e+33   1.0529986251636491e+34   2.4916640355454366e+34
367837.97718286345   6.78430107338446e+33   8.474089043378504e+33   1.97561181424688e+34
432876.12810830615   5.1904524745070117e+33   6.819111779309861e+33   1.5660215107876468e+34
509413.8014816375   3.960973004803765e+33   5.486867113629795e+33   1.2410103945969276e+34
599484.2503189408   3.014469625775811e+33   4.414417212569781e+33   9.831762899515372e+33
705480.2310718645   2.287386468484529e+33   3.551099390223859e+33   7.786839880283775e+33
830217.5681319735   1.7301585806529642e+33   2.8561319603369194e+33   6.165371315362521e+33
977009.9572992247   1.304183441185505e+33   2.2966871213387582e+33   4.8799808024596105e+33
1149756.9953977356   9.79438458715123e+32   1.846339773816185e+33   3.861258134275922e+33
1353047.7745798077   7.326083802365305e+32   1.4838189425596233e+33   3.05407959009744e+33
1592282.793341094   5.4561488985857984e+32   1.1920027792653973e+33   2.4146786189753582e+33
1873817.422860383   4.044631830703044e+32   9.571096323621753e+32   1.9083145765207344e+33
2205130.739903046   2.9833816029588076e+32   7.680469299548727e+32   1.5074179661674507e+33
2595024.2113997373   2.1889705283570768e+32   6.158870662037024e+32   1.1901152282261194e+33
3053855.5088334125   1.5971653495809936e+32   4.93445461191111e+32   9.39055758523776e+32
3593813.6638046256   1.1586128196858571e+32   3.949407665859404e+32   7.404795169474633e+32
4229242.8743894985   8.354795689020462e+31   3.157210597284756e+32   5.834761000219985e+32
4977023.564332114   5.9884092793578525e+31   2.5204302350753855e+32   4.593961368337189e+32
5857020.818056662   4.266558101500048e+31   2.0089372267063074e+32   3.6138383284282454e+32
6892612.104349695   3.0219775661577457e+31   1.5984676023277744e+32   2.8400583812068085e+32
8111308.307896872   2.1283870299694162e+31   1.2694635460683847e+32   2.229566804211018e+32
9545484.566618327   1.4910410067126317e+31   1.0061421608971136e+32   1.74825039076006e+32
11233240.329780266   1.0393672959455023e+31   7.957505764960142e+31   1.369083506053212e+32
13219411.484660286   7.212197837718419e+30   6.2797248829226225e+31   1.0706579700366585e+32
15556761.439304722   4.9839398733731797e+30   4.944563755331559e+31   8.360176540316794e+31
18307382.802953698   3.4314123202353475e+30   3.8844019363159453e+31   6.517348906659253e+31
21544346.900318824   2.3547829845332588e+30   3.0445169845895443e+31   5.0717869051512115e+31
25353644.939701114   1.6113114867688084e+30   2.3806771755903056e+31   3.9393501103937104e+31
29836472.402833343   1.0998113026655873e+30   1.8571942209523304e+31   3.053474762698514e+31
35111917.34215128   7.490506010702012e+29   1.4453378380574965e+31   2.361534343172697e+31
41320124.00115334   5.091979690303177e+29   1.122038530252949e+31   1.821954128964982e+31
48626015.80065353   3.455865452022213e+29   8.688231288438036e+30   1.4019216874477508e+31
57223676.5935022   2.342168310714698e+29   6.709406535791484e+30   1.075568432724878e+31
67341506.57750829   1.5854479358320935e+29   5.166451982695837e+30   8.225239985996514e+30
79248289.8353917   1.072076719465527e+29   3.966090342498274e+30   6.267664775976606e+30
93260334.688322   7.242589632191057e+28   3.0344386336526433e+30   4.757083659398643e+30
109749876.54930545   4.8887484763514674e+28   2.3131177569784533e+30   3.594709589131002e+30
129154966.50148827   3.297365973093816e+28   1.756103741409314e+30   2.7030959017337133e+30
151991108.2952933   2.22239230342054e+28   1.3271895232001053e+30   2.0215931613078617e+30
178864952.9057435   1.4968068049292005e+28   9.979468421174023e+29   1.5027632310938294e+30
210490414.45120218   1.0073918397290994e+28   7.46095735508646e+29   1.10955115633934e+30
247707635.5991714   6.774910581736492e+27   5.542045854481947e+29   8.13055954491376e+29
291505306.28251696   4.552542722652035e+27   4.0865698588790616e+29   5.907744581845975e+29
343046928.63149124   3.056397971278649e+27   2.98833055607448e+29   4.2521865774544084e+29
403701725.85965496   2.0498276296094273e+27   2.1646242551836466e+29   3.028278196442336e+29
475081016.21027935   1.373115559769663e+27   1.5511417084715436e+29   2.1311314543742852e+29
559081018.2512223   9.185284443870269e+26   1.0979563318463374e+29   1.4798578267370207e+29
657933224.6575682   6.134340318113513e+26   7.663757078031362e+28   1.0122931939501654e+29
774263682.6811278   4.088882573966411e+26   5.264756236043477e+28   6.808605400173897e+28
911162756.1154869   2.7192516298346775e+26   3.551722925341231e+28   4.493278207015749e+28
1072267222.0103253   1.8035145475220004e+26   2.347177449860058e+28   2.902693825280326e+28
1261856883.0660183   1.1923388905422931e+26   1.5152690125963986e+28   1.8307958489215176e+28
1484968262.2544634   7.853003923350424e+25   9.52636255166712e+27   1.124191150760167e+28
1747528400.007683   5.149090086358098e+25   5.812803677034009e+27   6.699969601252788e+27
2056512308.3486514   3.3584280016478184e+25   3.4299312572035236e+27   3.863291477010993e+27
2420128264.7943835   2.176942793442252e+25   1.9497843415171213e+27   2.1484901279643954e+27
2848035868.4357934   1.4008493264300405e+25   1.0638458087929883e+27   1.1491473683583066e+27
3351602650.9388475   8.937591078516941e+24   5.5530191579883766e+26   5.8988322353320544e+26
3944206059.437648   5.645423091602633e+24   2.7663294959352753e+26   2.903409440834914e+26
4641588833.612773   3.524346014538494e+24   1.3141463597309078e+26   1.3713390395630997e+26
5462277217.684337   2.170227754422005e+24   5.960845015277574e+25   6.232621162057485e+25
6428073117.284319   1.3151478544724548e+24   2.590502153282517e+25   2.7378860877393614e+25
7564633275.54629   7.822010733218165e+23   1.0835003305007275e+25   1.168521549112833e+25
8902150854.450356   4.5516965369112463e+23   4.3767905653012164e+24   4.868168640242312e+24
10476157527.896662   2.5819294221484308e+23   1.7082987053308257e+24   1.9859824475709382e+24
12328467394.420633   1.4215521999430694e+23   6.421577392006975e+23   7.944074088838782e+23
14508287784.95943   7.558520318202083e+22   2.309221063874872e+23   3.11484699812544e+23
17073526474.706886   3.858312604540743e+22   7.863125575236534e+22   1.1952688424367243e+23
20092330025.65046   1.8777849069797313e+22   2.4994474365488437e+22   4.477131060263971e+22
23644894126.45407   8.644014181115351e+21   7.274349442455045e+21   1.6312714851816269e+22
27825594022.07126   3.7297471207420314e+21   1.8876999252333754e+21   5.756409615222405e+21
32745491628.777317   1.493689189320189e+21   4.208636590713968e+20   1.9568685006106992e+21
38535285937.105194   5.4970939491733746e+20   7.637361601238743e+19   6.367066590910604e+20
45348785081.28591   1.8429392086723943e+20   1.0376937909324657e+19   1.967169890759311e+20
53366992312.06302   5.596559863202513e+19   9.167716195299665e+17   5.715053485692902e+19
62802914418.34247   1.5363695447423926e+19   4.005972683754517e+16   1.5422781145688037e+19
73907220335.25775   3.8055366657598925e+18   474086884944871.75   3.8064330773646623e+18
86974900261.77835   8.420386328507113e+17   1474072869171.219   8.420418291737293e+17
102353102189.90268   1.625461755074688e+17   32633891.57232415   1.6254617589409427e+17
120450354025.87787   2.6393998975253584e+16   0.0   2.6393998975253584e+16
141747416292.68076   3421282746717752.0   0.0   3421282746717752.0
166810053720.00558   327252924765319.7   0.0   327252924765319.7
196304065004.02686   20350388761172.824   0.0   20350388761172.824
231012970008.3158   658476678557.4802   0.0   658476678557.4802
271858824273.294   7455810739.09887   0.0   7455810739.09887
319926713779.73846   24473551.14479512   0.0   24473551.14479512
376493580679.2456   7232.776702339981   0.0   7232.776702339981
443062145758.3887   0.0   0.0   0.0
521400828799.9674   0.0   0.0   0.0
613590727341.3163   0.0   0.0   0.0
722080901838.5457   0.0   0.0   0.0
849753435908.6438   0.0   0.0   0.0
1000000000000.0   0.0   0.0   0.0
