# `D+` Integrated Spectrum / 1/GeV - 2024/07/17 22:45:28
# Magnetar:
#     R = 1e+06 cm
#     B = 3.16e+14 G
#     o = 1e+04 rad / s
#     chi = 0.95 rad
#     I = 1e+45 g * cm**2
#     mu = 1.58e+32 erg / G
#     tsd = 3.24e+03 s
#     lum = 1.54e+49 erg / s
#     E = 5.27e+11 GeV
#     spec = 2.2e+39
#     n = 3.09e+18 1 / cm**3
# Energy / GeV # Spectrum (1e2 - 1e4) / 1/GeV # Spectrum (1e4 - 1e5) / 1/GeV # Spectrum (1e2 - 1e7) / 1/GeV
100000.0   4.84105189368129e+34   5.123862331787535e+34   1.249031366334702e+35
117681.19524349991   3.727306174641251e+34   4.1238096917072157e+34   9.903084706917826e+34
138488.63713938717   2.8638400176045603e+34   3.318799837599789e+34   7.849820892321577e+34
162975.08346206436   2.1955229635287886e+34   2.6707904684116597e+34   6.220749962049616e+34
191791.02616724887   1.6791652201895564e+34   2.149159878132859e+34   4.928570933661674e+34
225701.97196339216   1.2809687283196487e+34   1.7292593943649743e+34   3.903874635861808e+34
265608.7782946684   9.745155150550487e+33   1.3912482235057009e+34   3.091493271180683e+34
312571.58496882353   7.391813038579719e+33   1.1191556059083411e+34   2.447591363480113e+34
367837.97718286345   5.588854939465607e+33   9.001259347009977e+33   1.9373481937783594e+34
432876.12810830615   4.2110702148396595e+33   7.238111446655937e+33   1.5331120076131886e+34
509413.8014816375   3.1611023617485126e+33   5.818816419126898e+33   1.2129304032169188e+34
599484.2503189408   2.3633654136308298e+33   4.6763265035538013e+33   9.593805926509024e+33
705480.2310718645   1.7592676782685882e+33   3.756673621203114e+33   7.586386367772852e+33
830217.5681319735   1.3034657126705468e+33   3.016419090750548e+33   5.997390651985246e+33
977009.9572992247   9.609295178792307e+32   2.420600927547681e+33   4.7398612487109635e+33
1149756.9953977356   7.046460207219646e+32   1.941081575069427e+33   3.7448575278758885e+33
1353047.7745798077   5.1382446887192315e+32   1.5552177714373343e+33   2.957736364136438e+33
1592282.793341094   3.7249633380852066e+32   1.2447893927252938e+33   2.335197284581743e+33
1873817.422860383   2.6842516097668172e+32   9.95136313166358e+32   1.8429357440188113e+33
2205130.739903046   1.922596449269689e+32   7.944622680863255e+32   1.453779954270873e+33
2595024.2113997373   1.3687700044564022e+32   6.332729549452992e+32   1.146212086297739e+33
3053855.5088334125   9.68744187634713e+31   5.039224817553309e+32   9.031949067796519e+32
3593813.6638046256   6.817498741889835e+31   4.002478353392862e+32   7.112410433284506e+32
4229242.8743894985   4.772162653264938e+31   3.1727526873003532e+32   5.596749251257978e+32
4977023.564332114   3.323868342777403e+31   2.5098550793279035e+32   4.4004768194358e+32
5857020.818056662   2.304585746040299e+31   1.9812677483769066e+32   3.456734340163815e+32
6892612.104349695   1.5913044644780487e+31   1.5606622385088852e+32   2.7126189115482362e+32
8111308.307896872   1.0947545276284173e+31   1.2267181077440074e+32   2.1262733948762805e+32
9545484.566618327   7.507052588521806e+30   9.621798986382707e+31   1.6645819774920345e+32
11233240.329780266   5.133190626207571e+30   7.530995695805834e+31   1.301345870327257e+32
13219411.484660286   3.501331760055346e+30   5.882234883437252e+31   1.01583949825003e+32
15556761.439304722   2.3831685772071515e+30   4.584930673048776e+31   7.916681261510451e+31
18307382.802953698   1.6191380744798018e+30   3.5663591267229324e+31   6.158642041981897e+31
21544346.900318824   1.0983405038388627e+30   2.7683011636229037e+31   4.78172681445457e+31
25353644.939701114   7.440728582429088e+29   2.144284123656282e+31   3.7048582219334096e+31
29836472.402833343   5.03508188502529e+29   1.6573178271520443e+31   2.863962191492766e+31
35111917.34215128   3.403960168367805e+29   1.2780411786049097e+31   2.2084317577218705e+31
41320124.00115334   2.29938453585482e+29   9.832100758289792e+30   1.69832782723406e+31
48626015.80065353   1.5521706895303238e+29   7.544686334538419e+30   1.3021612322046986e+31
57223676.5935022   1.047152128248654e+29   5.773547727109978e+30   9.95133314754161e+30
67341506.57750829   7.0608212880029126e+28   4.4049879846527596e+30   7.5773866229391e+30
79248289.8353917   4.758830253764331e+28   3.349800776823647e+30   5.746546965336438e+30
93260334.688322   3.2059844498188254e+28   2.5381256166301336e+30   4.338594418856333e+30
109749876.54930545   2.158977111512808e+28   1.9153477365733947e+30   3.259315659915435e+30
129154966.50148827   1.453322698549815e+28   1.438840892409975e+30   2.4349628964744163e+30
151991108.2952933   9.779083058411604e+27   1.0753873068275211e+30   1.8078778487791475e+30
178864952.9057435   6.577235858570935e+27   7.99139377540728e+29   1.333041369613534e+30
210490414.45120218   4.4215758562718857e+27   5.900132615401263e+29   9.75355322256909e+29
247707635.5991714   2.9707745127979915e+27   4.324256128622189e+29   7.075025386787829e+29
291505306.28251696   1.9947216317927913e+27   3.1430218231632356e+29   5.0826285676956645e+29
343046928.63149124   1.3383364674157856e+27   2.2630123635884936e+29   3.611888491942256e+29
403701725.85965496   8.971335206697615e+26   1.6120632283729513e+29   2.5356511344159765e+29
475081016.21027935   6.0073398810254845e+26   1.134522521121929e+29   1.755910030173148e+29
559081018.2512223   4.017440681346385e+26   7.8755663737150015e+28   1.1973932974537093e+29
657933224.6575682   2.682560463994951e+26   5.382754578553574e+28   8.025355886342801e+28
774263682.6811278   1.7879362202903408e+26   3.6149847938340977e+28   5.27539082773981e+28
911162756.1154869   1.1890565127132484e+26   2.3802114665809904e+28   3.3928992070540074e+28
1072267222.0103253   7.887122499923451e+25   1.5327052896384721e+28   2.12945664391053e+28
1261856883.0660183   5.215378290433391e+25   9.626296977655358e+27   1.3004822500617388e+28
1484968262.2544634   3.4359963554246575e+25   5.87947828720954e+27   7.704747504137245e+27
1747528400.007683   2.2538505659922975e+25   3.4811717067613273e+27   4.414521914870857e+27
2056512308.3486514   1.470821276126205e+25   1.9914853242478672e+27   2.4388766207426286e+27
2420128264.7943835   9.540196818852523e+24   1.097060310029215e+27   1.2959134677420472e+27
2848035868.4357934   6.144018350051018e+24   5.800884505003435e+26   6.611768304579391e+26
3351602650.9388475   3.9237849858953855e+24   2.9363468314467796e+26   3.238097592394175e+26
3944206059.437648   2.481349934213411e+24   1.4206208876357502e+26   1.5246362941209586e+26
4641588833.612773   1.5512159014089032e+24   6.570221881148339e+25   6.925885588300356e+25
5462277217.684337   9.567778362251295e+23   2.911978054912257e+25   3.0506744542050542e+25
6428073117.284319   5.8092429803876835e+23   1.2425344836688777e+25   1.3100382380159796e+25
7564633275.54629   3.46297985692494e+23   5.131378717071909e+24   5.509731540990938e+24
8902150854.450356   2.02051909643271e+23   2.0579590485418333e+24   2.2762381476352205e+24
10476157527.896662   1.1497199779858391e+23   8.0113809959815e+23   9.248463987504945e+23
12328467394.420633   6.3533383780528005e+22   3.013890829463453e+23   3.694695553833161e+23
14508287784.95943   3.392655981019905e+22   1.0874857609431075e+23   1.4493097944439226e+23
17073526474.706886   1.7405291062444337e+22   3.724039983149626e+22   5.570157680926635e+22
20092330025.65046   8.520726828780056e+21   1.1932847700744193e+22   2.0913887589753613e+22
23644894126.45407   3.949203335230405e+21   3.510567665548485e+21   7.643548314378502e+21
27825594022.07126   1.7174984245134117e+21   9.241780205878697e+20   2.7073678468786285e+21
32745491628.777317   6.940341812098395e+20   2.1007643925588938e+20   9.244861324934922e+20
38535285937.105194   2.579952435446852e+20   3.9165015450626e+19   3.024025299377077e+20
45348785081.28591   8.743819308080051e+19   5.539202203705128e+18   9.402228040026137e+19
53366992312.06302   2.685422622820873e+19   5.2387051245558214e+17   2.7522485077666615e+19
62802914418.34247   7.457181099690553e+18   2.665791372644084e+16   7.495192008666525e+18
73907220335.25775   1.8696363765460413e+18   528927498822540.94   1.8705185175412403e+18
86974900261.77835   4.1952258548231e+17   3195872983658.747   4.1952941025228186e+17
102353102189.90268   8.241467170523326e+16   70817803.43717504   8.241467254444058e+16
120450354025.87787   1.3693367986292398e+16   0.0   1.3693367986292398e+16
141747416292.68076   1832235268146011.0   0.0   1832235268146011.0
166810053720.00558   183801885531592.28   0.0   183801885531592.28
196304065004.02686   12400969504837.676   0.0   12400969504837.676
231012970008.3158   476206202505.0395   0.0   476206202505.0395
271858824273.294   8341340555.35688   0.0   8341340555.35688
319926713779.73846   50785415.571388036   0.0   50785415.571388036
376493580679.2456   15705.56146200757   0.0   15705.56146200757
443062145758.3887   0.0   0.0   0.0
521400828799.9674   0.0   0.0   0.0
613590727341.3163   0.0   0.0   0.0
722080901838.5457   0.0   0.0   0.0
849753435908.6438   0.0   0.0   0.0
1000000000000.0   0.0   0.0   0.0
