# `D+s` Integrated Spectrum / 1/GeV - 2024/07/18 01:46:50
# Magnetar:
#     R = 1e+06 cm
#     B = 3.16e+14 G
#     o = 1e+04 rad / s
#     chi = 0.95 rad
#     I = 1e+45 g * cm**2
#     mu = 1.58e+32 erg / G
#     tsd = 3.24e+03 s
#     lum = 1.54e+49 erg / s
#     E = 5.27e+11 GeV
#     spec = 2.2e+39
#     n = 3.09e+18 1 / cm**3
# Energy / GeV # Spectrum (1e3 - 1e3) / 1/GeV # Spectrum (1e4 - 1e5) / 1/GeV # Spectrum (1e3 - 1e7) / 1/GeV
100000.0   1.2678424984125767e+43   3.0737326217775392e+41   1.3011172085776255e+43
117681.19524349991   9.333222267030487e+42   2.4692262574134247e+41   9.600503264616761e+42
138488.63713938717   6.851006085447988e+42   1.983509076277313e+41   7.065689174970941e+42
162975.08346206436   5.015263502477456e+42   1.5932378032134e+41   5.187687413688201e+42
191791.02616724887   3.661862563986244e+42   1.2796564657462268e+41   3.8003337849066026e+42
225701.97196339216   2.6670018696164974e+42   1.0276949066415737e+41   2.7781941285586136e+42
265608.7782946684   1.937731393746688e+42   8.252444597139568e+40   2.0270066133084508e+42
312571.58496882353   1.404561237451919e+42   6.625759723077123e+40   1.4762273977549018e+42
367837.97718286345   1.0157443805998147e+42   5.318722003525723e+40   1.0732626943891575e+42
432876.12810830615   7.328862481298521e+41   4.2685209968167157e+40   7.790376122971293e+41
509413.8014816375   5.275951801032108e+41   3.424689546599547e+40   5.64613909446413e+41
599484.2503189408   3.789420849182732e+41   2.746678344278981e+40   4.086233602933888e+41
705480.2310718645   2.7154405590669296e+41   2.201907188073725e+40   2.95330254649027e+41
830217.5681319735   1.941256673630161e+41   1.764199271852976e+40   2.1317572813464817e+41
977009.9572992247   1.384436160704653e+41   1.4125232455699186e+40   1.536887742393855e+41
1149756.9953977356   9.848615549501315e+40   1.129982577442346e+40   1.106747294729485e+41
1353047.7745798077   6.9879281902041175e+40   9.030036248901985e+39   7.961266394597622e+40
1592282.793341094   4.944775777895739e+40   7.206833543320042e+39   5.720933912492092e+40
1873817.422860383   3.489160721767129e+40   5.742652928460897e+39   4.1070026498833886e+40
2205130.739903046   2.4548398255719422e+40   4.5671840980236566e+39   2.9456227335731427e+40
2595024.2113997373   1.721903765387774e+40   3.6239850883811224e+39   2.110779696429309e+40
3053855.5088334125   1.204043825436179e+40   2.867756184671287e+39   1.5112654232617698e+40
3593813.6638046256   8.392677186486251e+39   2.2621405656666006e+39   1.081155031952664e+40
4229242.8743894985   5.831462776933208e+39   1.7779455264925043e+39   7.728601462660691e+39
4977023.564332114   4.039120354789204e+39   1.3917019875582148e+39   5.520709544888589e+39
5857020.818056662   2.789089660588722e+39   1.0845005012990225e+39   3.9407990285274754e+39
6892612.104349695   1.920252443535943e+39   8.410575905246512e+38   2.811139720675082e+39
8111308.307896872   1.3183940461660915e+39   6.4897585372963235e+38   2.0040180391963543e+39
9545484.566618327   9.028330394290836e+38   4.981656266101117e+38   1.4277527987680476e+39
11233240.329780266   6.167912891220075e+38   3.803976136617444e+38   1.0165915214373642e+39
13219411.484660286   4.204705086736646e+38   2.8895752909906723e+38   7.234198654053477e+38
15556761.439304722   2.860869481380778e+38   2.1837694963859946e+38   5.145073520413566e+38
18307382.802953698   1.9432196154992533e+38   1.6421930675541258e+38   3.6572502280758305e+38
21544346.900318824   1.317947705641954e+38   1.229053286270261e+38   2.598256689667949e+38
25353644.939701114   8.927118108256512e+37   9.156724277800552e+37   1.844901638123388e+38
29836472.402833343   6.040010925884861e+37   6.792499455616683e+37   1.309254914888274e+38
35111917.34215128   4.082683207414607e+37   5.018042542070536e+37   9.285962499068267e+37
41320124.00115334   2.757368680454613e+37   3.692693800370492e+37   6.582156329677938e+37
48626015.80065353   1.8609578045027195e+37   2.707295863770109e+37   4.662606435933604e+37
57223676.5935022   1.2552032027416204e+37   1.9777808259735808e+37   3.3005173597547786e+37
67341506.57750829   8.461805040990622e+36   1.4398657273458109e+37   2.3344929020881513e+37
79248289.8353917   5.701798115376154e+36   1.044722957501397e+37   1.6497358263486644e+37
93260334.688322   3.840448829479835e+36   7.55492059990285e+36   1.1646329727103855e+37
109749876.54930545   2.5857606091296472e+36   5.445036595998784e+36   8.211893807816429e+36
129154966.50148827   1.7403606071045935e+36   3.910949700897246e+36   5.782112916007255e+36
151991108.2952933   1.1709457603740192e+36   2.7990841674849744e+36   4.0645095503180284e+36
178864952.9057435   7.87546888287748e+35   1.9957878375600495e+36   2.8515059153419337e+36
210490414.45120218   5.294767609305502e+35   1.4172858301598928e+36   1.9958359524737448e+36
247707635.5991714   3.558195085695241e+35   1.0020500990008587e+36   1.3930609094527384e+36
291505306.28251696   2.3900041822100474e+35   7.050425670152343e+35   9.691420330117141e+35
343046928.63149124   1.604422034169282e+35   4.93397744267479e+35   6.716115874347106e+35
403701725.85965496   1.0763285541073223e+35   3.4320222685292694e+35   4.6330292433276075e+35
475081016.21027935   7.2147541818178915e+34   2.371039485824314e+35   3.178996313560994e+35
559081018.2512223   4.8314789804508725e+34   1.6254507763243703e+35   2.1677717841167018e+35
657933224.6575682   3.231747074290087e+34   1.1046097088764359e+35   1.4676252309467333e+35
774263682.6811278   2.158705109471762e+34   7.4325646434216025e+34   9.854540440660221e+34
911162756.1154869   1.4395556026774646e+34   4.945372068676451e+34   6.555210551986429e+34
1072267222.0103253   9.580776314718794e+33   3.2491379033850203e+34   4.314727334270946e+34
1261856883.0660183   6.361243807752901e+33   2.1046156150496056e+34   2.8068347967117666e+34
1484968262.2544634   4.21167077780686e+33   1.3418293432703326e+34   1.8024846027882088e+34
1747528400.007683   2.779106701639977e+33   8.406186696135508e+33   1.1414414568145353e+34
2056512308.3486514   1.826510321627995e+33   5.1657085300274663e+33   7.121546173488203e+33
2420128264.7943835   1.1947779920679102e+33   3.1085907316786253e+33   4.374773970785352e+33
2848035868.4357934   7.771955004009483e+32   1.8290509657047807e+33   2.6452219576934534e+33
3351602650.9388475   5.022515650153049e+32   1.0508022428488201e+33   1.574406741966469e+33
3944206059.437648   3.220785813788312e+32   5.887635523063814e+32   9.227617378710931e+32
4641588833.612773   2.0467996203840844e+32   3.2139360378912474e+32   5.3289932047152114e+32
5462277217.684337   1.2870515818786751e+32   1.7074076224984635e+32   3.03429447163517e+32
6428073117.284319   7.993854057872376e+31   8.814482086105763e+31   1.704149295068079e+32
7564633275.54629   4.894100131480606e+31   4.41178429506916e+31   9.440499697231372e+31
8902150854.450356   2.946668165064024e+31   2.133318697199013e+31   5.155753968485861e+31
10476157527.896662   1.7400767321966486e+31   9.915846536551321e+30   2.7729080265990925e+31
12328467394.420633   1.0047436522099953e+31   4.4003412335524537e+30   1.4663414961738327e+31
14508287784.95943   5.653001030012823e+30   1.8478651612860512e+30   7.608223130526271e+30
17073526474.706886   3.086937166774062e+30   7.258977941293096e+29   3.863194946711918e+30
20092330025.65046   1.6288436638557798e+30   2.6275681782344945e+29   1.9135549563497713e+30
23644894126.45407   8.264155158239279e+29   8.590204821463805e+28   9.210526919557433e+29
27825594022.07126   4.009967734202338e+29   2.46826570617501e+28   4.287744410894128e+29
32745491628.777317   1.8499440487156817e+29   6.000017186150464e+27   1.919380592135833e+29
38535285937.105194   8.062576012553382e+28   1.1674052983078e+27   8.202871721386866e+28
45348785081.28591   3.2957244860049223e+28   1.6709777611740966e+26   3.316897853920064e+28
53366992312.06302   1.252405416021101e+28   1.5337871263965215e+25   1.254507786927355e+28
62802914418.34247   4.371283448684714e+27   6.975048793363116e+23   4.372373666398367e+27
73907220335.25775   1.3768159119929263e+27   7.218026196998026e+21   1.3768316635939173e+27
86974900261.77835   3.813191049139024e+26   2.0018013098555875e+17   3.813191073850135e+26
102353102189.90268   8.944632947451558e+25   0.0   8.944632947451558e+25
120450354025.87787   1.6820815385066607e+25   0.0   1.6820815385066607e+25
141747416292.68076   2.331792260372491e+24   0.0   2.331792260372491e+24
166810053720.00558   2.0768336678180644e+23   0.0   2.0768336678180644e+23
196304065004.02686   9.159190313934639e+21   0.0   9.159190313934639e+21
231012970008.3158   9.026989680477608e+19   0.0   9.026989680477608e+19
271858824273.294   1581690100660603.5   0.0   1581690100660603.5
319926713779.73846   0.0   0.0   0.0
376493580679.2456   0.0   0.0   0.0
443062145758.3887   0.0   0.0   0.0
521400828799.9674   0.0   0.0   0.0
613590727341.3163   0.0   0.0   0.0
722080901838.5457   0.0   0.0   0.0
849753435908.6438   0.0   0.0   0.0
1000000000000.0   0.0   0.0   0.0
