# `K` Integrated Spectrum / 1/GeV - 2024/07/17 22:45:28
# Magnetar:
#     R = 1e+06 cm
#     B = 3.16e+14 G
#     o = 1e+04 rad / s
#     chi = 0.95 rad
#     I = 1e+45 g * cm**2
#     mu = 1.58e+32 erg / G
#     tsd = 3.24e+03 s
#     lum = 1.54e+49 erg / s
#     E = 5.27e+11 GeV
#     spec = 2.2e+39
#     n = 3.09e+18 1 / cm**3
# Energy / GeV # Spectrum (1e2 - 1e4) / 1/GeV # Spectrum (1e4 - 1e5) / 1/GeV # Spectrum (1e2 - 1e7) / 1/GeV
100000.0   4.977225674779306e+33   4.2396373690683053e+36   4.633407055964844e+37
117681.19524349991   3.550024098695747e+33   3.221939305140685e+36   3.8581439258283826e+37
138488.63713938717   2.5312903784190495e+33   2.4315141032950666e+36   3.2083072304987234e+37
162975.08346206436   1.8043380132876543e+33   1.8224951923018702e+36   2.6642319160317533e+37
191791.02616724887   1.2857518346911778e+33   1.3570537113986462e+36   2.209248199671903e+37
225701.97196339216   9.159195476894966e+32   1.0042029526306371e+36   1.8292371940145966e+37
265608.7782946684   6.522522634677169e+32   7.387923364951573e+35   1.5122509192405106e+37
312571.58496882353   4.643321185509027e+32   5.406296334961084e+35   1.2481875680331914e+37
367837.97718286345   3.304403825906804e+32   3.9369548389785935e+35   1.0285141598401825e+37
432876.12810830615   2.3507411365289012e+32   2.8543550734115367e+35   8.460298190500872e+36
509413.8014816375   1.6717044416167347e+32   2.061279800081273e+35   6.946638588947614e+36
599484.2503189408   1.1883723834893653e+32   1.4832955358148427e+35   5.693036697951833e+36
705480.2310718645   8.444598670206414e+31   1.0640057148656053e+35   4.6564811509532206e+36
830217.5681319735   5.998375016348274e+31   7.610823365741268e+34   3.8008274396221087e+36
977009.9572992247   4.259030603504348e+31   5.430235534103262e+34   3.095736539218247e+36
1149756.9953977356   3.022766147577429e+31   3.8655888170077863e+34   2.515772855239614e+36
1353047.7745798077   2.144414622207448e+31   2.746104294341843e+34   2.0396381891957186e+36
1592282.793341094   1.5206065176237298e+31   1.9471631838406554e+34   1.6495217528862567e+36
1873817.422860383   1.077759703663324e+31   1.3782810881488042e+34   1.3305491251331185e+36
2205130.739903046   7.63513700780154e+30   9.740418105501232e+33   1.07031550682406e+36
2595024.2113997373   5.406223199682533e+30   6.873301882278835e+33   8.584907449818962e+35
3053855.5088334125   3.826004178490257e+30   4.8432358864218436e+33   6.864854124215296e+35
3593813.6638046256   2.7062190795177835e+30   3.4081163596692457e+33   5.471687879021142e+35
4229242.8743894985   1.9131006918046282e+30   2.395084538468835e+33   4.346309183594973e+35
4977023.564332114   1.3516398385152233e+30   1.680999883206692e+33   3.43982090746575e+35
5857020.818056662   9.543834456475664e+29   1.1783169756487618e+33   2.7118402290425948e+35
6892612.104349695   6.734627751168926e+29   8.249098359077493e+32   2.129079237501847e+35
8111308.307896872   4.7492236309402146e+29   5.7676458516027195e+32   1.664152927496806e+35
9545484.566618327   3.34687120653715e+29   4.027469818815459e+32   1.294579442242946e+35
11233240.329780266   2.3569546063727052e+29   2.8086509317833094e+32   1.0019426828814183e+35
13219411.484660286   1.6586210462554132e+29   1.956057920218958e+32   7.71191897658692e+34
15556761.439304722   1.1663103563361571e+29   1.3604028901331497e+32   5.900567025564797e+34
18307382.802953698   8.19480638547115e+28   9.44790473619293e+31   4.485592594950256e+34
21544346.900318824   5.7531638306155e+28   6.551830681731363e+31   3.386081298941782e+34
25353644.939701114   4.035555804043552e+28   4.536520916934611e+31   2.5366069965330456e+34
29836472.402833343   2.8282174091057976e+28   3.136078200603727e+31   1.8844309617392935e+34
35111917.34215128   1.9802424868327474e+28   2.164321472265322e+31   1.3871824015320627e+34
41320124.00115334   1.385167971676092e+28   1.4910463797280798e+31   1.010941385333968e+34
48626015.80065353   9.679351094157126e+27   1.0253088957436404e+31   7.286576798453249e+33
57223676.5935022   6.75662551896606e+27   7.036682298777308e+30   5.18849530574527e+33
67341506.57750829   4.711205361563308e+27   4.8192740033153684e+30   3.645353752169903e+33
79248289.8353917   3.281180806799115e+27   3.29337682003751e+30   2.5235905334221778e+33
93260334.688322   2.282443497237765e+27   2.2453668121434347e+30   1.7187549791079293e+33
109749876.54930545   1.5856807290924924e+27   1.5270482206814437e+30   1.1496933543356558e+33
129154966.50148827   1.1001439365312801e+27   1.0357716740221726e+30   7.53834390567283e+32
151991108.2952933   7.622043837424855e+26   7.005500210786407e+29   4.833841131008016e+32
178864952.9057435   5.2728978823366705e+26   4.723748250204989e+29   3.0227347332460805e+32
210490414.45120218   3.642071902016188e+26   3.174714657296647e+29   1.8371037217807875e+32
247707635.5991714   2.5114891419481612e+26   2.1260748026387138e+29   1.0810639272723539e+32
291505306.28251696   1.7288485332695407e+26   1.418337335790176e+29   6.134793822446136e+31
343046928.63149124   1.187903323310139e+26   9.422418526991787e+28   3.344027806793682e+31
403701725.85965496   8.146206788642974e+25   6.231068612652333e+28   1.7454533558612415e+31
475081016.21027935   5.574772292267587e+25   4.10008463706886e+28   8.714411122131659e+30
559081018.2512223   3.806609616768791e+25   2.6831168198205413e+28   4.17142900811198e+30
657933224.6575682   2.5931370932364904e+25   1.7452505810289718e+28   1.9269512389667284e+30
774263682.6811278   1.762051080005633e+25   1.1276263252062127e+28   8.669660571817663e+29
911162756.1154869   1.1940980151995544e+25   7.231612611472732e+27   3.8335790153654606e+29
1072267222.0103253   8.068710073304777e+24   4.59925661375385e+27   1.677396671127239e+29
1261856883.0660183   5.435199173941211e+24   2.897866260861322e+27   7.2939885311912826e+28
1484968262.2544634   3.648946958210503e+24   1.8066949903033917e+27   3.159677664326973e+28
1747528400.007683   2.440850264336359e+24   1.1129854824420344e+27   1.36522823949542e+28
2056512308.3486514   1.626305865364104e+24   6.763288519100999e+26   5.886960243498813e+27
2420128264.7943835   1.0789458458729928e+24   4.045870996034132e+26   2.533787671022726e+27
2848035868.4357934   7.124627283691316e+23   2.3768226722276047e+26   1.0884650605151691e+27
3351602650.9388475   4.6805287421388376e+23   1.3672236833165789e+26   4.665886195887654e+26
3944206059.437648   3.057562155015854e+23   7.673674454952782e+25   1.9952399593204322e+26
4641588833.612773   1.9849408670343774e+23   4.184448945857855e+25   8.507976708390849e+25
5462277217.684337   1.2797246718947639e+23   2.2057032113393144e+25   3.615935656538846e+25
6428073117.284319   8.187276675956124e+22   1.1173933213788545e+25   1.530853879355589e+25
7564633275.54629   5.192972350015142e+22   5.406803838290647e+24   6.451772726413321e+24
8902150854.450356   3.2619362033712646e+22   2.4858174972742696e+24   2.7047225472228615e+24
10476157527.896662   2.0265642516308797e+22   1.0843353275632185e+24   1.1268751348199737e+24
12328467394.420633   1.2433842543080323e+22   4.519322369962655e+23   4.6610660087958555e+23
14508287784.95943   7.519851841295047e+21   1.8299256967491746e+23   1.911713527176277e+23
17073526474.706886   4.4729939493137626e+21   7.278387125206828e+22   7.763745502902873e+22
20092330025.65046   2.609613301788958e+21   2.834399198440886e+22   3.11679222620091e+22
23644894126.45407   1.4881821582548376e+21   1.0739550436518043e+22   1.2344771551511276e+22
27825594022.07126   8.259747092174711e+20   3.9252292242852817e+21   4.812752055872906e+21
32745491628.777317   4.4373127300410756e+20   1.3672183722133585e+21   1.8418188143947363e+21
38535285937.105194   2.2909973215706022e+20   4.4596674906896636e+20   6.896324706951742e+20
45348785081.28591   1.1262211873563004e+20   1.326836438375549e+20   2.5164292812402174e+20
53366992312.06302   5.206444415210962e+19   3.45260843015613e+19   8.905322445034512e+19
62802914418.34247   2.2267246732661506e+19   7.305336694143567e+18   3.0382281269261255e+19
73907220335.25775   8.628382345515769e+18   1.0874663829614147e+18   9.918547614939103e+18
86974900261.77835   2.9602235722315197e+18   7.87897418883146e+16   3.068918458515601e+18
102353102189.90268   8.875913644231178e+17   411969609483815.06   8.888346655639345e+17
120450354025.87787   2.3697707234225408e+17   0.0   2.3697707234225408e+17
141747416292.68076   5.683338982329496e+16   0.0   5.683338982329496e+16
166810053720.00558   1.1858296151386864e+16   0.0   1.1858296151386864e+16
196304065004.02686   2045826233253476.0   0.0   2045826233253476.0
231012970008.3158   268423808159146.12   0.0   268423808159146.12
271858824273.294   22973601659135.75   0.0   22973601659135.75
319926713779.73846   914750796090.7317   0.0   914750796090.7317
376493580679.2456   5776797061.366017   0.0   5776797061.366017
443062145758.3887   0.0   0.0   0.0
521400828799.9674   0.0   0.0   0.0
613590727341.3163   0.0   0.0   0.0
722080901838.5457   0.0   0.0   0.0
849753435908.6438   0.0   0.0   0.0
1000000000000.0   0.0   0.0   0.0
