# `K` Integrated Spectrum / 1/GeV - 2024/07/18 01:46:50
# Magnetar:
#     R = 1e+06 cm
#     B = 3.16e+14 G
#     o = 1e+04 rad / s
#     chi = 0.95 rad
#     I = 1e+45 g * cm**2
#     mu = 1.58e+32 erg / G
#     tsd = 3.24e+03 s
#     lum = 1.54e+49 erg / s
#     E = 5.27e+11 GeV
#     spec = 2.2e+39
#     n = 3.09e+18 1 / cm**3
# Energy / GeV # Spectrum (1e3 - 1e3) / 1/GeV # Spectrum (1e4 - 1e5) / 1/GeV # Spectrum (1e3 - 1e7) / 1/GeV
100000.0   2.2377700819744827e+42   2.4210170624235967e+43   3.4038483526824743e+43
117681.19524349991   1.5963438744174528e+42   1.7842148612597902e+43   2.5734215844114497e+43
138488.63713938717   1.1384451821128613e+42   1.3099721357656366e+43   1.9437798581039466e+43
162975.08346206436   8.116535578731561e+41   9.582253612521868e+42   1.4667908963984543e+43
191791.02616724887   5.784954789577719e+41   6.984142193367414e+42   1.1057653515252271e+43
225701.97196339216   4.1218990876858576e+41   5.073036651016059e+42   8.327585028874723e+42
265608.7782946684   2.9360260668650732e+41   3.6729735007872216e+42   6.265030282755085e+42
312571.58496882353   2.0906644519195433e+41   2.6512940958812106e+42   4.70826494784398e+42
367837.97718286345   1.4882196071198237e+41   1.9084839184170272e+42   3.534408561509909e+42
432876.12810830615   1.0590196963122082e+41   1.370281681255286e+42   2.6501722536524636e+42
509413.8014816375   7.533402042570212e+40   9.815639820309098e+41   1.984792400325991e+42
599484.2503189408   5.357026719477066e+40   7.016252849812386e+41   1.4846379421298925e+42
705480.2310718645   3.808002387081585e+40   5.00555486369951e+41   1.1090981585133572e+42
830217.5681319735   2.705865631458568e+40   3.564784573282851e+41   8.274493137257793e+41
977009.9572992247   1.9219648857178754e+40   2.5346207720327852e+41   6.164690460584877e+41
1149756.9953977356   1.364611982261687e+40   1.7994794951159865e+41   4.586215056488138e+41
1353047.7745798077   9.684817203487572e+39   1.275798363470186e+41   3.4067780532724037e+41
1592282.793341094   6.870461329699493e+39   9.033529260255119e+40   2.5266822935979284e+41
1873817.422860383   4.87176125288685e+39   6.388588578238907e+40   1.8708708149117973e+41
2205130.739903046   3.452906421219537e+39   4.512836947330391e+40   1.382897700224633e+41
2595024.2113997373   2.4461050177442738e+39   3.184277809051739e+40   1.0203605179011153e+41
3053855.5088334125   1.7320056162496803e+39   2.2444138646267573e+40   7.514431122109707e+40
3593813.6638046256   1.2257431665526739e+39   1.5802837426464867e+40   5.523012152664401e+40
4229242.8743894985   8.669965484509897e+38   1.1115081779522896e+40   4.050872697363093e+40
4977023.564332114   6.129065928555089e+38   7.809754050099073e+39   2.964596219495855e+40
5857020.818056662   4.33033191840477e+38   5.481602012762831e+39   2.1645842840863166e+40
6892612.104349695   3.057655527706051e+38   3.843425396255101e+39   1.5765894629345324e+40
8111308.307896872   2.1576771626724496e+38   2.691924388565218e+39   1.1453444264558416e+40
9545484.566618327   1.5216140013592945e+38   1.8833490491932527e+39   8.297735948398026e+39
11233240.329780266   1.0723380796604198e+38   1.3161641994866342e+39   5.99398386117942e+39
13219411.484660286   7.551908201127934e+37   9.187261870464335e+38   4.316417713350934e+39
15556761.439304722   5.314560794853074e+37   6.405339376179155e+38   3.098096832098716e+39
18307382.802953698   3.7372409959947675e+37   4.46025098936176e+38   2.2158128663621708e+39
21544346.900318824   2.6259989979133064e+37   3.1018188341826155e+38   1.5788137329569852e+39
25353644.939701114   1.8436721644354551e+37   2.1542204988777955e+38   1.1203936376028759e+39
29836472.402833343   1.2933132425514848e+37   1.4940142746576465e+38   7.916300695251301e+38
35111917.34215128   9.064398490274868e+36   1.0346227117271263e+38   5.567269887490877e+38
41320124.00115334   6.347065011308185e+36   7.153870946441106e+37   3.895579938749696e+38
48626015.80065353   4.440052079764476e+36   4.938537482615832e+37   2.7110470622288118e+38
57223676.5935022   3.102885442041957e+36   3.403431455897671e+37   1.8756200469789713e+38
67341506.57750829   2.166138456000276e+36   2.3412992667775366e+37   1.2893921652881206e+38
79248289.8353917   1.5105267999105654e+36   1.6075861729527896e+37   8.802955198200787e+37
93260334.688322   1.0521313756276956e+36   1.1015926596469294e+37   5.965247957041148e+37
109749876.54930545   7.319591680194226e+35   7.532596148429484e+36   4.009803013430788e+37
129154966.50148827   5.08573154121424e+35   5.1391054676774205e+36   2.672020244739401e+37
151991108.2952933   3.528923096841762e+35   3.497728883987436e+36   1.7640236675861176e+37
178864952.9057435   2.4452517972096254e+35   2.3744915231369793e+36   1.1530669442116179e+37
210490414.45120218   1.6918653106929565e+35   1.6075473345540497e+36   7.458644749306797e+36
247707635.5991714   1.1687845289913575e+35   1.085125858706492e+36   4.7725659761157134e+36
291505306.28251696   8.0610656803133e+34   7.301713669159913e+35   3.0203754404032444e+36
343046928.63149124   5.550084007966007e+34   4.896573634759962e+35   1.890858996349663e+36
403701725.85965496   3.8142751883336925e+34   3.2716351492744774e+35   1.1716545796322054e+36
475081016.21027935   2.616268081130994e+34   2.1772629048720153e+35   7.193373832004378e+35
559081018.2512223   1.790845965438016e+34   1.442722167567928e+35   4.3820319279511616e+35
657933224.6575682   1.2231595027302176e+34   9.515123791802149e+34   2.6528925424739604e+35
774263682.6811278   8.334784582435684e+33   6.243370906286017e+34   1.5984473043772349e+35
911162756.1154869   5.665305960171637e+33   4.0736681677817475e+34   9.595848359645012e+34
1072267222.0103253   3.8405570460650085e+33   2.6416485475310858e+34   5.743276854819973e+34
1261856883.0660183   2.5961093705703187e+33   1.7014390976562935e+34   3.4281466863925117e+34
1484968262.2544634   1.7495101245648662e+33   1.0876827946938034e+34   2.0408437862314332e+34
1747528400.007683   1.1750892118790287e+33   6.895778740325528e+33   1.2116359393368291e+34
2056512308.3486514   7.864482058200235e+32   4.331746535118276e+33   7.172420053651751e+33
2420128264.7943835   5.243053089845825e+32   2.6933452232605057e+33   4.2323417764558645e+33
2848035868.4357934   3.480702195046852e+32   1.6556290553140623e+33   2.488771307735751e+33
3351602650.9388475   2.3001313849799507e+32   1.0048648492041536e+33   1.457895283040859e+33
3944206059.437648   1.5123563235396368e+32   6.013072874451106e+32   8.504187153823826e+32
4641588833.612773   9.889124879499425e+31   3.541979020487088e+32   4.937549507481401e+32
5462277217.684337   6.4271693831342675e+31   2.0503915486118003e+32   2.8519771691415813e+32
6428073117.284319   4.149151954402847e+31   1.16452575344109e+32   1.6379245609284337e+32
7564633275.54629   2.658599324477544e+31   6.479187625049919e+31   9.347209110086866e+31
8902150854.450356   1.6893697522085997e+31   3.527143376384876e+31   5.296656572676332e+31
10476157527.896662   1.063497559809946e+31   1.87726531152801e+31   2.9778549152419055e+31
12328467394.420633   6.62481719684145e+30   9.764357901603372e+30   1.6595412368980182e+31
14508287784.95943   4.0778354959619656e+30   4.9589865079239894e+30   9.157936299254128e+30
17073526474.706886   2.476181337457428e+30   2.4519476670376586e+30   4.9980869173421267e+30
20092330025.65046   1.4803666913008584e+30   1.1742023520883128e+30   2.693966255458468e+30
23644894126.45407   8.692635625419914e+29   5.408880716968375e+29   1.4316683043077642e+30
27825594022.07126   4.9988524154530795e+29   2.374896573122646e+29   7.486911820647481e+29
32745491628.777317   2.8053811587661163e+29   9.816053890107905e+28   3.8437502049405146e+29
38535285937.105194   1.5298163829024512e+29   3.7522702198250415e+28   1.931832573570608e+29
45348785081.28591   8.063333072906653e+28   1.2920335171702317e+28   9.471944032351134e+28
53366992312.06302   4.0815062133695275e+28   3.843646759944193e+27   4.511189172240469e+28
62802914418.34247   1.9688541015475802e+28   9.189582678223365e+26   2.0756574636279203e+28
73907220335.25775   8.971326088359857e+27   1.529486217775748e+26   9.161626866285205e+27
86974900261.77835   3.825363714426398e+27   1.2295481818217632e+25   3.8431804914579274e+27
102353102189.90268   1.512584214160105e+27   7.142001302856181e+22   1.512810555389999e+27
120450354025.87787   5.48820739632756e+26   0.0   5.48820739632756e+26
141747416292.68076   1.7865164620485352e+26   0.0   1.7865164620485352e+26
166810053720.00558   5.001692652011161e+25   0.0   5.001692652011161e+25
196304065004.02686   1.1191276261795127e+25   0.0   1.1191276261795127e+25
231012970008.3158   1.7290111188483632e+24   0.0   1.7290111188483632e+24
271858824273.294   1.2677453296784809e+23   0.0   1.2677453296784809e+23
319926713779.73846   5.751688344979006e+20   0.0   5.751688344979006e+20
376493580679.2456   0.0   0.0   0.0
443062145758.3887   0.0   0.0   0.0
521400828799.9674   0.0   0.0   0.0
613590727341.3163   0.0   0.0   0.0
722080901838.5457   0.0   0.0   0.0
849753435908.6438   0.0   0.0   0.0
1000000000000.0   0.0   0.0   0.0
