# `Lam+c` Integrated Spectrum / 1/GeV - 2024/07/17 23:57:52
# Magnetar:
#     R = 1e+06 cm
#     B = 3.16e+14 G
#     o = 1e+04 rad / s
#     chi = 0.95 rad
#     I = 1e+45 g * cm**2
#     mu = 1.58e+32 erg / G
#     tsd = 3.24e+03 s
#     lum = 1.54e+49 erg / s
#     E = 5.27e+11 GeV
#     spec = 2.2e+39
#     n = 3.09e+18 1 / cm**3
# Energy / GeV # Spectrum (1e3 - 1e3) / 1/GeV # Spectrum (1e4 - 1e5) / 1/GeV # Spectrum (1e3 - 1e7) / 1/GeV
100000.0   3.9819410731651065e+33   3.3291317911667895e+33   8.949126577126189e+33
117681.19524349991   3.117813508464758e+33   2.6797992729533767e+33   7.128682397207338e+33
138488.63713938717   2.437175148714245e+33   2.157107841845441e+33   5.675845184014151e+33
162975.08346206436   1.9019291723540048e+33   1.7363565484086218e+33   4.5170537326516763e+33
191791.02616724887   1.4816968303864035e+33   1.3976626461904395e+33   3.593299739542275e+33
225701.97196339216   1.1522965528887884e+33   1.125021677579599e+33   2.85728897119074e+33
265608.7782946684   8.945138670909658e+32   9.05550926947231e+32   2.2711475087606928e+33
312571.58496882353   6.931079077091796e+32   7.288804657291195e+32   1.8045697707783037e+33
367837.97718286345   5.3601046765115535e+32   5.8666299436686266e+32   1.4333246613308907e+33
432876.12810830615   4.136816029013038e+32   4.721793042785098e+32   1.1380519033962292e+33
509413.8014816375   3.1859231665120907e+32   3.800207050426678e+32   9.03293297615678e+32
599484.2503189408   2.448101710766023e+32   3.058334016617392e+32   7.16713947903406e+32
705480.2310718645   1.8766806051608395e+32   2.4611273628836735e+32   5.6847689698702346e+32
830217.5681319735   1.435000045016913e+32   1.980375667265078e+32   4.507414803900075e+32
977009.9572992247   1.0943081563899636e+32   1.593369518874736e+32   3.572613188617018e+32
1149756.9953977356   8.3208969969868e+31   1.2818284195996002e+32   2.830624519621449e+32
1353047.7745798077   6.30740415289425e+31   1.0310370059232152e+32   2.241858522957686e+32
1592282.793341094   4.765173001080129e+31   8.291497603583026e+31   1.7748160112127458e+32
1873817.422860383   3.587087174286776e+31   6.666313475968045e+31   1.4044447615646818e+32
2205130.739903046   2.6897931475430938e+31   5.358061218470516e+31   1.110827045091995e+32
2595024.2113997373   2.0085370054758031e+31   4.30495511971236e+31   8.781325329007926e+31
3053855.5088334125   1.4931008233538237e+31   3.4572614371741645e+31   6.9378338288143e+31
3593813.6638046256   1.104609113163395e+31   2.7749489953175453e+31   5.477888538794164e+31
4229242.8743894985   8.130227432258193e+30   2.2257980362086837e+31   4.322152804752074e+31
4977023.564332114   5.951753993295691e+30   1.7838777981410671e+31   3.407640633729754e+31
5857020.818056662   4.332377843373571e+30   1.4283206518085827e+31   2.684358074897338e+31
6892612.104349695   3.13518752647788e+30   1.1423345892581246e+31   2.112631325117203e+31
8111308.307896872   2.255315379151162e+30   9.12407175544104e+30   1.6609820018589792e+31
9545484.566618327   1.612680608035423e+30   7.276633568651123e+30   1.3044381995848108e+31
11233240.329780266   1.146358626509495e+30   5.793472103309487e+30   1.0231924792037697e+31
13219411.484660286   8.10213726102889e+29   4.60404022715723e+30   8.015359478336288e+30
15556761.439304722   5.695073455067898e+29   3.651440401969997e+30   6.270119649919983e+30
18307382.802953698   3.9825761589554774e+29   2.889729043067672e+30   4.897444830604382e+30
21544346.900318824   2.7717900491813144e+29   2.2817640963362333e+30   3.8190517468593667e+30
25353644.939701114   1.9207357516111376e+29   1.7974914710983313e+30   2.972907846827117e+30
29836472.402833343   1.3257764509708358e+29   1.4125818109672918e+30   2.3098794561508118e+30
35111917.34215128   9.119067264024502e+28   1.1073436262651123e+30   1.7910731941402088e+30
41320124.00115334   6.252910043676933e+28   8.658526358434871e+29   1.3857261957098607e+30
48626015.80065353   4.275904056587062e+28   6.75249886659386e+29   1.0695303006364691e+30
57223676.5935022   2.916994756454058e+28   5.251722185405603e+29   8.232992752153284e+29
67341506.57750829   1.9858080231478113e+28   4.0728754305067374e+29   6.3190752407705966e+29
79248289.8353917   1.349423405935116e+28   3.1491420264990097e+29   4.83444440659441e+29
93260334.688322   9.155192311421427e+27   2.4270864320211706e+29   3.685409816484104e+29
109749876.54930545   6.20265520757843e+27   1.8640916945402275e+29   2.798344749750428e+29
129154966.50148827   4.1970655562126997e+27   1.4262606011619634e+29   2.1154444555390483e+29
151991108.2952933   2.836767296019617e+27   1.086701287666534e+29   1.5913715911717445e+29
178864952.9057435   1.915352923068908e+27   8.2413171807042e+28   1.1906062283231456e+29
210490414.45120218   1.291945101797279e+27   6.2174806533398145e+28   8.853536718515585e+28
247707635.5991714   8.70599293781006e+26   4.663107036552356e+28   6.538935216481284e+28
291505306.28251696   5.860923777222096e+26   3.4740883903917327e+28   4.7927762632545325e+28
343046928.63149124   3.941550043917144e+26   2.5687107778763924e+28   3.483037978701145e+28
403701725.85965496   2.6478005898874227e+26   1.8829464191139554e+28   2.5070739554295687e+28
475081016.21027935   1.776511175997243e+26   1.3667059617246423e+28   1.7852496573131736e+28
559081018.2512223   1.1902651668607026e+26   9.808643317743387e+27   1.255936942041864e+28
657933224.6575682   7.9619723917918e+25   6.949073932641661e+27   8.715800634968638e+27
774263682.6811278   5.3159830489522745e+25   4.8507500865846494e+27   5.956065094171206e+27
911162756.1154869   3.5415295834981977e+25   3.328996972850999e+27   4.0000350519367347e+27
1072267222.0103253   2.3532641189221655e+25   2.240595510486802e+27   2.634185603818216e+27
1261856883.0660183   1.5588931735914136e+25   1.4747997259770576e+27   1.6967211240112317e+27
1484968262.2544634   1.028918961120038e+25   9.463169147673669e+26   1.0659377257006238e+27
1747528400.007683   6.761950146249724e+24   5.8982883524308366e+26   6.511221241419224e+26
2056512308.3486514   4.421216664792034e+24   3.557151804610532e+26   3.854339276168634e+26
2420128264.7943835   2.873301951272061e+24   2.0670698770772795e+26   2.2033480896166765e+26
2848035868.4357934   1.8539937208932903e+24   1.152513122338964e+26   1.2122107275857811e+26
3351602650.9388475   1.1861942088199351e+24   6.141297255353743e+25   6.399134835472474e+25
3944206059.437648   7.513764239757676e+23   3.1177674300369512e+25   3.2342804494025765e+25
4641588833.612773   4.703600902367128e+23   1.505587565557323e+25   1.5640422957949757e+25
5462277217.684337   2.903712386246179e+23   6.91966129019156e+24   7.246061335538732e+24
6428073117.284319   1.7633666300772703e+23   3.0349151858664696e+24   3.227265050669776e+24
7564633275.54629   1.0503122519704095e+23   1.2749555459512936e+24   1.388719092836058e+24
8902150854.450356   6.114611211768661e+22   5.14395652924633e+23   5.8039289448080325e+23
10476157527.896662   3.4649885358635646e+22   1.9930955998114452e+23   2.365657548356037e+23
12328467394.420633   1.9019055388117338e+22   7.3889375583527944e+22   9.42475243011281e+22
14508287784.95943   1.005308771714271e+22   2.600570772294997e+22   3.6710300952839645e+22
17073526474.706886   5.081910452301314e+21   8.582119672723897e+21   1.3960398930838469e+22
20092330025.65046   2.4367968530721533e+21   2.608302834186994e+21   5.169058175214761e+21
23644894126.45407   1.097832862442455e+21   7.118157153270434e+20   1.856248781291132e+21
27825594022.07126   4.597182216100523e+20   1.682753253174239e+20   6.432469506528493e+20
32745491628.777317   1.7688392463088894e+20   3.269973409501789e+19   2.137343927543762e+20
38535285937.105194   6.185868768294746e+19   4.822149746729945e+18   6.755577468982828e+19
45348785081.28591   1.9505708453648065e+19   4.742604892766538e+17   2.010739303818695e+19
53366992312.06302   5.527699682619829e+18   2.468724143624567e+16   5.562901420350097e+18
62802914418.34247   1.4054829966876045e+18   361395195560381.7   1.406169229470536e+18
73907220335.25775   3.172604835548785e+17   19152723212.56408   3.172606827675126e+17
86974900261.77835   6.181946204831532e+16   0.0   6.181946204831532e+16
102353102189.90268   9910190240215580.0   0.0   9910190240215580.0
120450354025.87787   1212149714010524.0   0.0   1212149714010524.0
141747416292.68076   99813673678105.05   0.0   99813673678105.05
166810053720.00558   4381278064289.6216   0.0   4381278064289.6216
196304065004.02686   52844843314.30165   0.0   52844843314.30165
231012970008.3158   1570848.8672525259   0.0   1570848.8672525259
271858824273.294   0.0   0.0   0.0
319926713779.73846   0.0   0.0   0.0
376493580679.2456   0.0   0.0   0.0
443062145758.3887   0.0   0.0   0.0
521400828799.9674   0.0   0.0   0.0
613590727341.3163   0.0   0.0   0.0
722080901838.5457   0.0   0.0   0.0
849753435908.6438   0.0   0.0   0.0
1000000000000.0   0.0   0.0   0.0
