# `pi` Integrated Spectrum / 1/GeV - 2024/07/18 01:46:50
# Magnetar:
#     R = 1e+06 cm
#     B = 3.16e+14 G
#     o = 1e+04 rad / s
#     chi = 0.95 rad
#     I = 1e+45 g * cm**2
#     mu = 1.58e+32 erg / G
#     tsd = 3.24e+03 s
#     lum = 1.54e+49 erg / s
#     E = 5.27e+11 GeV
#     spec = 2.2e+39
#     n = 3.09e+18 1 / cm**3
# Energy / GeV # Spectrum (1e3 - 1e3) / 1/GeV # Spectrum (1e4 - 1e5) / 1/GeV # Spectrum (1e3 - 1e7) / 1/GeV
100000.0   1.5149008036878982e+42   2.0900992792551482e+43   5.972732134988112e+43
117681.19524349991   1.0801655059831453e+42   1.4901520126437174e+43   4.478421884095167e+43
138488.63713938717   7.699287829653794e+41   1.0613683757473024e+43   3.3540726767137686e+43
162975.08346206436   5.486068890372779e+41   7.552678736150136e+42   2.5089704253171907e+43
191791.02616724887   3.907675092536449e+41   5.369789402210432e+42   1.8744461734801793e+43
225701.97196339216   2.7823893069074128e+41   3.814628690077594e+42   1.3985631217220629e+43
265608.7782946684   1.9804099807483494e+41   2.707692705285867e+42   1.0420741163857658e+43
312571.58496882353   1.4090464594436964e+41   1.9204734258233936e+42   7.753480690596616e+42
367837.97718286345   1.0021286497621871e+41   1.3610863108762177e+42   5.760348184661489e+42
432876.12810830615   7.124334310404931e+40   9.639074783149523e+41   4.272923744986036e+42
509413.8014816375   5.062699602115408e+40   6.82116945629285e+41   3.164421524322624e+42
599484.2503189408   3.5960954285811874e+40   4.823424719521353e+41   2.3394968326822942e+42
705480.2310718645   2.553202550334651e+40   3.4081824930543005e+41   1.7265265723637066e+42
830217.5681319735   1.8119152313240491e+40   2.4063381602906114e+41   1.2717677665582525e+42
977009.9572992247   1.2852341255263473e+40   1.6976620508981808e+41   9.349410939469586e+41
1149756.9953977356   9.111949162275792e+39   1.1967390821144367e+41   6.858947936539459e+41
1353047.7745798077   6.456803373649352e+39   8.429327786792543e+40   5.020869898567273e+41
1592282.793341094   4.5729166552973893e+39   5.932284891686123e+40   3.666874813776429e+41
1873817.422860383   3.236907705405554e+39   4.1713421977603033e+40   2.6714800323059938e+41
2205130.739903046   2.2899190146010375e+39   2.930504704667943e+40   1.9412645638705547e+41
2595024.2113997373   1.6190258211290035e+39   2.0568787573991346e+40   1.4067834300017081e+41
3053855.5088334125   1.143989175899502e+39   1.4423158039406642e+40   1.0164971881425845e+41
3593813.6638046256   8.078202526800225e+38   1.0103736059098679e+40   7.322197244037947e+40
4229242.8743894985   5.700618216078263e+38   7.070610844927523e+39   5.257087606040278e+40
4977023.564332114   4.0200622720018694e+38   4.9427344086242076e+39   3.7611549450283654e+40
5857020.818056662   2.8329302086198863e+38   3.4513878068412235e+39   2.6807944389204955e+40
6892612.104349695   1.994891718046661e+38   2.407219630595494e+39   1.9030726829802753e+40
8111308.307896872   1.4036880450509528e+38   1.676914570726805e+39   1.3451418582406742e+40
9545484.566618327   9.869076031872071e+37   1.1666902558947141e+39   9.463669749642305e+39
11233240.329780266   6.933030139688916e+37   8.106324098729518e+38   6.624804139171571e+39
13219411.484660286   4.866264223961826e+37   5.6245593846537334e+38   4.6124919237722176e+39
15556761.439304722   3.412547899826121e+37   3.896901619329589e+38   3.1926931685185246e+39
18307382.802953698   2.3908694195589465e+37   2.6957812296557387e+38   2.1959858314278168e+39
21544346.900318824   1.6734377572851744e+37   1.861870103995663e+38   1.500120761159746e+39
25353644.939701114   1.1700956832555564e+37   1.283736850108154e+38   1.0171933380207507e+39
29836472.402833343   8.172814283895808e+36   8.835348397089667e+37   6.842315727165015e+38
35111917.34215128   5.702159727113645e+36   6.069430599541232e+37   4.5630757936720894e+38
41320124.00115334   3.973765903768967e+36   4.161025387278843e+37   3.015089639711567e+38
48626015.80065353   2.7658998791302243e+36   2.84661004704348e+37   1.9727812068886666e+38
57223676.5935022   1.9227213291905383e+36   1.9429999518305177e+37   1.2775525308681839e+38
67341506.57750829   1.33479485490527e+36   1.3230343488242156e+37   8.185608788932407e+37
79248289.8353917   9.2534039868333e+35   8.985719728928278e+36   5.188596119729504e+37
93260334.688322   6.405390326764511e+35   6.086122347820757e+36   3.2544330295503126e+37
109749876.54930545   4.427030312865835e+35   4.1100675491785403e+36   2.0212095035452534e+37
129154966.50148827   3.054676022373873e+35   2.7668318395398995e+36   1.244339751389029e+37
151991108.2952933   2.104085626471543e+35   1.8562500993281475e+36   7.605025630245516e+36
178864952.9057435   1.446650448498176e+35   1.2407730901358297e+36   4.6217039978218233e+36
210490414.45120218   9.927004060355023e+34   8.260735368456475e+35   2.79692045657767e+36
247707635.5991714   6.797907848787851e+34   5.476056187993844e+35   1.687352097007658e+36
291505306.28251696   4.644917365684113e+34   3.613050240866602e+35   1.0154684068663845e+36
343046928.63149124   3.166386862062259e+34   2.3716471613075665e+35   6.0982258804284265e+35
403701725.85965496   2.153101777267737e+34   1.5480500740177975e+35   3.654774454672261e+35
475081016.21027935   1.4601718123468174e+34   1.0042454114942729e+35   2.1858522936016456e+35
559081018.2512223   9.874117468173106e+33   6.470588312958617e+34   1.3044580497153273e+35
657933224.6575682   6.65662963726175e+33   4.1379884624971483e+34   7.766225149478733e+34
774263682.6811278   4.472687074813054e+33   2.624382593830345e+34   4.611730351476807e+34
911162756.1154869   2.994502681307755e+33   1.6491527829620893e+34   2.7307396612919724e+34
1072267222.0103253   1.997068455609641e+33   1.0257491796310965e+34   1.6118818970841872e+34
1261856883.0660183   1.326254704354574e+33   6.307552091018991e+33   9.481608050105686e+33
1484968262.2544634   8.767209398993167e+32   3.8295836114178e+33   5.55610017416855e+33
1747528400.007683   5.766454481461256e+32   2.2923663035081095e+33   3.242076080753945e+33
2056512308.3486514   3.771863593965277e+32   1.350749639061024e+33   1.882986752317281e+33
2420128264.7943835   2.4522156543342723e+32   7.821766155411766e+32   1.0879912817864953e+33
2848035868.4357934   1.5835671504533088e+32   4.443797318244417e+32   6.250499122287313e+32
3351602650.9388475   1.0149992692721353e+32   2.4732096194048684e+32   3.568140293900795e+32
3944206059.437648   6.451649664276497e+31   1.346780728141155e+32   2.022546990552423e+32
4641588833.612773   4.062686559728243e+31   7.170195415566571e+31   1.1374566301482252e+32
5462277217.684337   2.5315066767755593e+31   3.730598775177836e+31   6.340909491919424e+31
6428073117.284319   1.558693816234885e+31   1.8951996610313337e+31   3.5001850232200935e+31
7564633275.54629   9.467540626059002e+30   9.373417177358566e+30   1.9108421401243439e+31
8902150854.450356   5.661680053522417e+30   4.4900576710544943e+30   1.0302402712719238e+31
10476157527.896662   3.3254200601139623e+30   2.068883986043553e+30   5.476611351550364e+30
12328467394.420633   1.912855695635867e+30   9.086377073768177e+29   2.8647927243311885e+30
14508287784.95943   1.0737871604993844e+30   3.75662552099925e+29   1.4711746796592738e+30
17073526474.706886   5.8570383190300504e+29   1.4363743133934046e+29   7.395967666610296e+29
20092330025.65046   3.087905724727303e+29   4.9471784214367935e+28   3.627263019453061e+29
23644894126.45407   1.5634328472706647e+29   1.472093601589943e+28   1.727999505306419e+29
27825594022.07126   7.543600059541207e+28   3.5204166173643815e+27   7.9527523240797e+28
32745491628.777317   3.4381772667745464e+28   5.860694924961937e+26   3.5110971069282625e+28
38535285937.105194   1.4663912922021429e+28   4.712546465979545e+25   1.4732200231896936e+28
45348785081.28591   5.799625932152824e+27   2.7380589397869684e+23   5.800493666122063e+27
53366992312.06302   2.104792882956666e+27   0.0   2.104792882956666e+27
62802914418.34247   6.853118859127352e+26   0.0   6.853118859127352e+26
73907220335.25775   1.919094350041937e+26   0.0   1.919094350041937e+26
86974900261.77835   4.2950107152965735e+25   0.0   4.2950107152965735e+25
102353102189.90268   6.6372140795158e+24   0.0   6.6372140795158e+24
120450354025.87787   4.8674547554851614e+23   0.0   4.8674547554851614e+23
141747416292.68076   2.209024189261642e+21   0.0   2.209024189261642e+21
166810053720.00558   0.0   0.0   0.0
196304065004.02686   0.0   0.0   0.0
231012970008.3158   0.0   0.0   0.0
271858824273.294   0.0   0.0   0.0
319926713779.73846   0.0   0.0   0.0
376493580679.2456   0.0   0.0   0.0
443062145758.3887   0.0   0.0   0.0
521400828799.9674   0.0   0.0   0.0
613590727341.3163   0.0   0.0   0.0
722080901838.5457   0.0   0.0   0.0
849753435908.6438   0.0   0.0   0.0
1000000000000.0   0.0   0.0   0.0
