# `pi` Integrated Spectrum / 1/GeV - 2024/07/18 10:30:27
# Magnetar:
#     R = 1e+06 cm
#     B = 3.16e+14 G
#     o = 1e+04 rad / s
#     chi = 0.95 rad
#     I = 1e+45 g * cm**2
#     mu = 1.58e+32 erg / G
#     tsd = 3.24e+03 s
#     lum = 1.54e+49 erg / s
#     E = 5.27e+11 GeV
#     spec = 2.2e+39
#     n = 3.09e+18 1 / cm**3
# Energy / GeV # Spectrum (1e3 - 1e3) / 1/GeV # Spectrum (1e4 - 1e5) / 1/GeV # Spectrum (1e3 - 1e7) / 1/GeV
100000.0   3.3654485845223337e+33   4.5598302985037294e+36   4.435405999713179e+38
117681.19524349991   2.3990432824935865e+33   3.256468435321303e+36   3.6510753797152086e+38
138488.63713938717   1.7095484129732017e+33   2.3223271207982042e+36   3.0000944770439333e+38
162975.08346206436   1.2177806350716492e+33   1.6539892060008803e+36   2.4606137814085456e+38
191791.02616724887   8.671553779371545e+32   1.1765748364893337e+36   2.0142433885969115e+38
225701.97196339216   6.1724923208013244e+32   8.360274849034183e+35   1.6455220404889147e+38
265608.7782946684   4.391928614522424e+32   5.9342376507303906e+35   1.341465412300545e+38
312571.58496882353   3.1237486594451405e+32   4.207999614327613e+35   1.0911821045309925e+38
367837.97718286345   2.2208423109862167e+32   2.9810578491416097e+35   8.855474432923755e+37
432876.12810830615   1.578245789099868e+32   2.10990044313228e+35   7.169266083230791e+37
509413.8014816375   1.1210913064302668e+32   1.4919669346791034e+35   5.789398248140665e+37
599484.2503189408   7.9599550090177305e+31   1.0540650253067172e+35   4.662634006854472e+37
705480.2310718645   5.649071476670152e+31   7.440271489396538e+34   3.744612888687309e+37
830217.5681319735   4.007131402726319e+31   5.2471420305416205e+34   2.9984262496945867e+37
977009.9572992247   2.8410119287133977e+31   3.6971458120577546e+34   2.3934135209336906e+37
1149756.9953977356   2.0132052302054984e+31   2.6026451074926123e+34   1.9041461187964288e+37
1353047.7745798077   1.425839917612862e+31   1.8304625796690694e+34   1.5095706706261707e+37
1592282.793341094   1.0092832139275335e+31   1.286161117748116e+34   1.1922873753129618e+37
1873817.422860383   7.140133657111212e+30   9.02833972733334e+33   9.379428865964424e+36
2205130.739903046   5.048259621939092e+30   6.331201662014483e+33   7.347201607215362e+36
2595024.2113997373   3.567053960446209e+30   4.4352315026055495e+33   5.729103225169691e+36
3053855.5088334125   2.5188394468877243e+30   3.103722737194927e+33   4.4455383744004064e+36
3593813.6638046256   1.7774761045197678e+30   2.1695468328630056e+33   3.431401854820463e+36
4229242.8743894985   1.253454830083682e+30   1.5148025507448993e+33   2.6335686237146022e+36
4977023.564332114   8.832910770110024e+29   1.0563884514068659e+33   2.008799240803296e+36
5857020.818056662   6.219811962190749e+29   7.357831931996503e+32   1.5219947647947854e+36
6892612.104349695   4.376393003350203e+29   5.118124079404181e+32   1.1447452253105475e+36
8111308.307896872   3.0768600167359432e+29   3.555335776533745e+32   8.541243993517237e+35
9545484.566618327   2.1614117786743562e+29   2.466217012893424e+32   6.3169094370544704e+35
11233240.329780266   1.5170183935502659e+29   1.7081753730589383e+32   4.626621602144043e+35
13219411.484660286   1.0637806666923357e+29   1.1812755265159303e+32   3.3523195953055165e+35
15556761.439304722   7.4525464435661635e+28   8.155522615472197e+31   2.400090779683032e+35
18307382.802953698   5.215921903120124e+28   5.620764040570585e+31   1.6955540893073302e+35
21544346.900318824   3.646805599313786e+28   3.8666915321717788e+31   1.1800753587968982e+35
25353644.939701114   2.5470030045706585e+28   2.654838325011091e+31   8.076728433674018e+34
29836472.402833343   1.7768897637852592e+28   1.8190323130140907e+31   5.424942000080273e+34
35111917.34215128   1.2381781931334779e+28   1.2436295718263325e+31   3.5676572322598304e+34
41320124.00115334   8.617342392562503e+27   8.482598947178653e+30   2.291311248477832e+34
48626015.80065353   5.98970263399552e+27   5.771474849619202e+30   1.4331109003601063e+34
57223676.5935022   4.15768116075744e+27   3.9164289617083623e+30   8.70266441799865e+33
67341506.57750829   2.8819159656523065e+27   2.650066357015791e+30   5.11393958306628e+33
79248289.8353917   1.994635519709074e+27   1.7876993497689472e+30   2.8970316054815757e+33
93260334.688322   1.3783617544134955e+27   1.201990345183304e+30   1.5759958581646525e+33
109749876.54930545   9.509173698564812e+26   8.053070050732076e+29   8.208224038394427e+32
129154966.50148827   6.548797070509192e+26   5.374610520980397e+29   4.089325844731229e+32
151991108.2952933   4.50168597343491e+26   3.572005014084258e+29   1.9540438508311958e+32
178864952.9057435   3.088413935177611e+26   2.3631535137664152e+29   9.017106427269652e+31
210490414.45120218   2.1144124151742814e+26   1.5556051066505261e+29   4.0562588445469473e+31
247707635.5991714   1.4443750458123342e+26   1.0184050998983877e+29   1.7947728356677658e+31
291505306.28251696   9.843347271793815e+25   6.626900578529042e+28   7.863470401229613e+30
343046928.63149124   6.6912643413632615e+25   4.283381228089044e+28   3.425774570877414e+30
403701725.85965496   4.536268416394856e+25   2.748037621895477e+28   1.4875448359958162e+30
475081016.21027935   3.066399245114098e+25   1.7483898312473694e+28   6.445910586179017e+29
559081018.2512223   2.066344119042959e+25   1.102019237397293e+28   2.7890524259309737e+29
657933224.6575682   1.3877592465495892e+25   6.873104998118343e+27   1.2052750111817722e+29
774263682.6811278   9.286325960334053e+24   4.235571731739862e+27   5.202156335314295e+28
911162756.1154869   6.189535221590419e+24   2.574731723969804e+27   2.2423655633416775e+28
1072267222.0103253   4.107762212834937e+24   1.5407592745873936e+27   9.651126617431243e+27
1261856883.0660183   2.7134038191551966e+24   9.054520417166098e+26   4.1466145107264397e+27
1484968262.2544634   1.7831611643668248e+24   5.2101648331394266e+26   1.7779685648855679e+27
1747528400.007683   1.1652284713570694e+24   2.9252023729537427e+26   7.6052738418716e+26
2056512308.3486514   7.566937035381659e+23   1.595618625210897e+26   3.24402599793125e+26
2420128264.7943835   4.8800287850492104e+23   8.413449042975502e+25   1.3791774684070015e+26
2848035868.4357934   3.123021683619586e+23   4.26351225905898e+25   5.840834919059321e+25
3351602650.9388475   1.981424134247591e+23   2.0636466497098667e+25   2.462412484150364e+25
3944206059.437648   1.244969663603731e+23   9.490667605030359e+24   1.0326258401640865e+25
4641588833.612773   7.736796480480334e+22   4.141180031793437e+24   4.303600863627888e+24
5462277217.684337   4.74808859817154e+22   1.7265017660589152e+24   1.7806322950105176e+24
6428073117.284319   2.8723007414393576e+22   6.992931679566466e+23   7.30534700717688e+23
7564633275.54629   1.7089122221864425e+22   2.7822149076335355e+23   2.9676568667669685e+23
8902150854.450356   9.972195721517422e+21   1.0837861815509375e+23   1.1917041660693045e+23
10476157527.896662   5.687932117712961e+21   4.107646713044877e+22   4.72121060947124e+22
12328467394.420633   3.157449490841959e+21   1.5017362346287804e+22   1.8410312459488313e+22
14508287784.95943   1.6964625509922458e+21   5.232212844447422e+21   7.046819938246852e+21
17073526474.706886   8.759500600688088e+20   1.7071279976143024e+21   2.638839975735304e+21
20092330025.65046   4.305984158819586e+20   5.080358015946496e+20   9.62900282269539e+20
23644894126.45407   1.9903272017428876e+20   1.3223150540562088e+20   3.406965653525751e+20
27825594022.07126   8.509029259425933e+19   2.798569876087559e+19   1.1617793455543171e+20
32745491628.777317   3.294397102154003e+19   4.166951661911891e+18   3.788764004021406e+19
38535285937.105194   1.128242012562185e+19   3.0198105930833805e+17   1.1699020666988294e+19
45348785081.28591   3.370398551350723e+18   1579385133783105.0   3.375165047618854e+18
53366992312.06302   8.931615205656125e+17   0.0   8.931615205656125e+17
62802914418.34247   2.1106304819423834e+17   0.0   2.1106304819423834e+17
73907220335.25775   4.271664524926725e+16   0.0   4.271664524926725e+16
86974900261.77835   6891181220156935.0   0.0   6891181220156935.0
102353102189.90268   767681979177799.1   0.0   767681979177799.1
120450354025.87787   40671502716704.445   0.0   40671502716704.445
141747416292.68076   134073524229.67775   0.0   134073524229.67775
166810053720.00558   0.0   0.0   0.0
196304065004.02686   0.0   0.0   0.0
231012970008.3158   0.0   0.0   0.0
271858824273.294   0.0   0.0   0.0
319926713779.73846   0.0   0.0   0.0
376493580679.2456   0.0   0.0   0.0
443062145758.3887   0.0   0.0   0.0
521400828799.9674   0.0   0.0   0.0
613590727341.3163   0.0   0.0   0.0
722080901838.5457   0.0   0.0   0.0
849753435908.6438   0.0   0.0   0.0
1000000000000.0   0.0   0.0   0.0
