# Eh = 1e9 GeV (no cooling)
# t / s # pi / 1/(GeV s) # k / 1/(GeV s) # c / 1/(GeV s)
100.0 5.46553757835363e+29 5.053200818383421e+29 1.7496857269892449e+34
107.22672220103232 5.738664536353159e+29 5.30865775440186e+29 1.8259041748140308e+34
114.97569953977356 6.022712463679732e+29 5.571009027917682e+29 1.9026843323688747e+34
123.28467394420659 6.3016710336433046e+29 5.839643323416155e+29 1.9797260976723797e+34
132.19411484660287 6.596150718722964e+29 6.114849170692058e+29 2.056707102160298e+34
141.74741629268047 6.906698736364813e+29 6.39433236013177e+29 2.13328489680609e+34
151.99110829529332 7.213977624201167e+29 6.678528597915905e+29 2.2090997062248177e+34
162.97508346206433 7.520931473831463e+29 6.966262776403365e+29 2.283777704842263e+34
174.7528400007683 7.831567403449704e+29 7.256176808149626e+29 2.3569347913494267e+34
187.3817422860383 8.147458163761105e+29 7.54823251187184e+29 2.4281808183242483e+34
200.9233002565048 8.466481942166773e+29 7.841400564246176e+29 2.4971241909079976e+34
215.44346900318845 8.782904772024522e+29 8.133578607134952e+29 2.5633767709155786e+34
231.01297000831605 9.094422451715494e+29 8.424878344622684e+29 2.626558951749667e+34
247.70763559917114 9.4060954485394e+29 8.713681232949384e+29 2.686304820616201e+34
265.6087782946687 9.71585484086438e+29 8.998727001705436e+29 2.7422672541331407e+34
284.8035868435802 1.001817651819735e+30 9.279122894400062e+29 2.7941228382888777e+34
305.3855508833416 1.0313749494477052e+30 9.55343769986089e+29 2.8415764684635662e+34
327.45491628777285 1.0602908696960613e+30 9.820953752842074e+29 2.8843655167739004e+34
351.1191734215131 1.0882892198207663e+30 1.0080278896805637e+30 2.9222634482634675e+34
376.49358067924675 1.1152672090387712e+30 1.0330533570869505e+30 2.9550827945574072e+34
403.70172585965537 1.1412125854626227e+30 1.0570426578080205e+30 2.98267740460172e+34
432.8761281083057 1.1659102765915236e+30 1.0799216591905975e+30 3.004943925747969e+34
464.1588833612782 1.1893119791347924e+30 1.1015956957035885e+30 3.0218224855046387e+34
497.7023564332114 1.2113040894147429e+30 1.1219722816618665e+30 3.0332965722202566e+34
533.6699231206312 1.2318059786647341e+30 1.1409852121301666e+30 3.0393921426010804e+34
572.236765935022 1.2507947410351556e+30 1.1585678875203013e+30 3.0401760008206136e+34
613.5907273413176 1.2681679770683624e+30 1.174664172201383e+30 3.035753519898743e+34
657.9332246575682 1.283901014261989e+30 1.1892278927730353e+30 3.0262657902507223e+34
705.4802310718645 1.2979208536146906e+30 1.2022185868318252e+30 3.0118862929611806e+34
756.463327554629 1.31022023220711e+30 1.2136110186088052e+30 2.9928172041663517e+34
811.1308307896873 1.3207718612047219e+30 1.2233869853577251e+30 2.969285439378992e+34
869.7490026177834 1.329571393642226e+30 1.2315379599548198e+30 2.941538546000346e+34
932.60334688322 1.3366196967735326e+30 1.2380635597359357e+30 2.9098405466866663e+34
1000.0 1.3419199006550533e+30 1.2429731127874316e+30 2.874467829180014e+34
1072.2672220103232 1.345491505134042e+30 1.2462812295447653e+30 2.835705166304878e+34
1149.7569953977356 1.3473626772409276e+30 1.2480128780365635e+30 2.7938419380171527e+34
1232.8467394420659 1.3475604924245397e+30 1.248197297964407e+30 2.749168613885092e+34
1321.9411484660286 1.3461284659351026e+30 1.246870270956343e+30 2.701973540360384e+34
1417.4741629268049 1.3431082312225096e+30 1.2440735933416967e+30 2.652540063908757e+34
1519.9110829529332 1.3385514952388998e+30 1.2398527456577256e+30 2.6011440082262785e+34
1629.7508346206434 1.3325112075936972e+30 1.2342568491513315e+30 2.548051512377385e+34
1747.5284000076829 1.3250423942777294e+30 1.2273386231120757e+30 2.493517226528884e+34
1873.817422860383 1.316205381154639e+30 1.2191534469953368e+30 2.4377828534913303e+34
2009.2330025650458 1.3060625302487725e+30 1.2097584393325265e+30 2.381076017418075e+34
2154.4346900318847 1.294676125398186e+30 1.1992120333744599e+30 2.323609435737333e+34
2310.1297000831605 1.2821113993280397e+30 1.1875737158167765e+30 2.265580366665569e+34
2477.0763559917114 1.268432623806158e+30 1.1749033341830851e+30 2.207170302227434e+34
2656.0877829466867 1.2537039079714969e+30 1.161260854303255e+30 2.1485448755025368e+34
2848.035868435802 1.2379901624818844e+30 1.1467057675219199e+30 2.0898539506155967e+34
3053.8555088334156 1.2213548742874392e+30 1.1312970394381858e+30 2.0312318645660227e+34
3274.5491628777286 1.203860438527625e+30 1.1150925933464389e+30 1.972797791225823e+34
3511.191734215131 1.1855683830534441e+30 1.0981492873902849e+30 1.9146561995131268e+34
3764.9358067924672 1.1665384822021637e+30 1.0805225732921856e+30 1.8568973797521154e+34
4037.017258596558 1.1468290113587083e+30 1.0622664126382365e+30 1.7995980144388135e+34
4328.7612810830615 1.1264965070331169e+30 1.0434331432026145e+30 1.7428217719386033e+34
4641.588833612782 1.1055955967032152e+30 1.0240733840197235e+30 1.6866199040206364e+34
4977.023564332114 1.0841790177611417e+30 1.0042359813283836e+30 1.6310318305325031e+34
5336.699231206313 1.062297526520497e+30 9.839679469233713e+29 1.5760856969709146e+34
5722.3676593502205 1.0399999207323269e+30 9.633144740755795e+29 1.521798893266238e+34
6135.907273413176 1.0173329934260663e+30 9.423189063218299e+29 1.4681785248843472e+34
6579.332246575683 9.943415607784935e+29 9.210227689191187e+29 1.4152218305404488e+34
7054.8023107186455 9.710685361397647e+29 8.994657998274802e+29 1.3629165446758822e+34
7564.633275546291 9.475549154971148e+29 8.776859794823456e+29 1.3112412077365672e+34
8111.308307896872 9.238398841996102e+29 8.557195915279416e+29 1.2601654337021902e+34
8697.490026177835 8.999608240980629e+29 8.336012680081058e+29 1.2096501528987843e+34
9326.0334688322 8.759534174276553e+29 8.1136405992124e+29 1.1596478597180917e+34
10000.0 8.518517040157487e+29 7.890395008624313e+29 1.1101029104994155e+34
10722.672220103232 8.276881699724906e+29 7.666576742078221e+29 1.0609519377241654e+34
11497.569953977356 8.034938034803193e+29 7.442472874204063e+29 1.0121244741565696e+34
12328.467394420659 7.792981901710207e+29 7.218357421077253e+29 9.635439158685696e+33
13219.411484660288 7.551295821540567e+29 6.99449207401603e+29 9.151289969320045e+33
14174.741629268048 7.310149786775019e+29 6.771126917364854e+29 8.667960003825066e+33
15199.11082952933 7.069802062841853e+29 6.548501140848128e+29 8.184619867009449e+33
16297.508346206469 6.830499862619075e+29 6.326843738735978e+29 7.700493747176908e+33
17475.28400007683 6.592480150148141e+29 6.1063741862042715e+29 7.214922451421081e+33
18738.174228603868 6.355970320980978e+29 5.887303102955201e+29 6.727447272310476e+33
20092.33002565046 6.1211889084089554e+29 5.6698328934309475e+29 6.237917330527616e+33
21544.346900318866 5.88834624377765e+29 5.454158359337396e+29 5.746620641859202e+33
23101.29700083158 5.6576450902622654e+29 5.240467295461962e+29 5.254434656247931e+33
24770.76355991714 5.429281258398198e+29 5.0289410547696606e+29 4.762984853223671e+33
26560.87782946684 5.2034441982458854e+29 4.8197550914134436e+29 4.27479014659396e+33
28480.35868435805 4.980317555587982e+29 4.613079479117601e+29 3.7933626071085263e+33
30538.555088334124 4.760079698719245e+29 4.409079403779851e+29 3.323219665332627e+33
32745.491628777316 4.542904235776304e+29 4.207915633145123e+29 2.8697651471776953e+33
35111.917342151275 4.328960488076149e+29 4.009744962209301e+29 2.4390078384903948e+33
37649.35806792471 4.118413950277161e+29 3.8147206353949944e+29 2.037116397264202e+33
40370.1725859655 3.911426721354928e+29 3.622992746485903e+29 1.6698522859317658e+33
43287.612810830615 3.7081579119848344e+29 3.4347086157286934e+29 1.3419618460990727e+33
46415.88833612782 3.5087640287576916e+29 3.250013145062111e+29 1.0566256955735329e+33
49770.23564332114 3.3133993330669105e+29 3.0690491513135866e+29 8.150547424655516e+32
53366.99231206313 3.1222161763758434e+29 2.8919576767810263e+29 6.163068599644538e+32
57223.676593502205 2.9353653105584533e+29 2.7188782769005204e+29 4.573913056352159e+32
61359.072734131754 2.7529961704236127e+29 2.5499492835544397e+29 3.336992113984704e+32
65793.32246575682 2.575257128803334e+29 2.3853080423807066e+29 2.397005308299985e+32
70548.02310718645 2.402295719308859e+29 2.225091121496437e+29 1.6971381897995394e+32
75646.3327554629 2.2342588236509504e+29 2.06943448802391e+29 1.1851131703181713e+32
81113.08307896872 2.071292818434806e+29 1.9184736478387205e+29 8.163433315478862e+31
86974.90026177834 1.9135436737490896e+29 1.7723437422364014e+29 5.546078016660387e+31
93260.334688322 1.76115699557958e+29 1.631179593533346e+29 3.714215063336943e+31
100000.0 1.6142779999022043e+29 1.4951156892469297e+29 2.44959096896524e+31
