# Eh = 1e6 GeV (no cooling)
# t / s # pi / 1/(GeV s) # k / 1/(GeV s) # c / 1/(GeV s)
1000.0 3.8935591700994744e+36 3.7048735467671766e+36 6.992558536013658e+41
1097.4987654930555 3.95866265797527e+36 3.76682186903701e+36 6.743216550777092e+41
1204.5035402587823 4.018101577677629e+36 3.823380057252564e+36 6.47135497984666e+41
1321.9411484660286 4.0719154687925876e+36 3.8745857185582287e+36 6.176753581852846e+41
1450.8287784959402 4.120185515009761e+36 3.920516076442908e+36 5.858849827441323e+41
1592.2827933410922 4.163029099204952e+36 3.961282781511924e+36 5.516866388552585e+41
1747.5284000076829 4.200594266251278e+36 3.9970266558225695e+36 5.150068081569641e+41
1917.9102616724888 4.233054303890985e+36 4.0279125198690624e+36 4.758183321636247e+41
2104.9041445120197 4.2606025383637295e+36 4.054124241007218e+36 4.3420041510315966e+41
2310.1297000831605 4.283447466786617e+36 4.0758600950206827e+36 3.9041266293790495e+41
2535.3644939701117 4.3018083021316716e+36 4.0933285139494027e+36 3.449704769146988e+41
2782.559402207126 4.315910959528303e+36 4.1067442613069e+36 2.9869870228266167e+41
3053.8555088334156 4.3259845322410064e+36 4.116325057265592e+36 2.5273454909062177e+41
3351.6026509388407 4.332258235361829e+36 4.122288654479123e+36 2.0845688524268706e+41
3678.379771828634 4.3349588232779645e+36 4.124850351197266e+36 1.6733686946847815e+41
4037.017258596554 4.3343084439347775e+36 4.124220916926033e+36 1.3072268526603697e+41
4430.621457583882 4.330522906051249e+36 4.120604896340618e+36 9.958692331343089e+40
4862.601580065353 4.323810315959509e+36 4.1141992527763955e+36 7.430652711849662e+40
5336.699231206313 4.3143700453829664e+36 4.105192307459083e+36 5.460114513682366e+40
5857.020818056667 4.3023919878849125e+36 4.093762929425511e+36 3.970777074144584e+40
6428.073117284319 4.288056063786032e+36 4.080079929367464e+36 2.8684033584446024e+40
7054.8023107186455 4.271531932803957e+36 4.064301610125277e+36 2.06389320858763e+40
7742.63682681127 4.252978877726576e+36 4.046575425453966e+36 1.4822089265992038e+40
8497.534359086447 4.232545824697991e+36 4.0270376974483614e+36 1.0637189873847489e+40
9326.0334688322 4.2103714675359223e+36 4.005813340232443e+36 7.632025070589327e+39
10235.31021899027 4.1865844665316816e+36 3.9830155332539093e+36 5.475240293723266e+39
11233.240329780265 4.161303694125698e+36 3.9587452808646376e+36 3.927700653916666e+39
12328.467394420659 4.1346385010097087e+36 3.9330907850505527e+36 2.817486613180652e+39
13530.477745798076 4.106688977217308e+36 3.9061265444737095e+36 2.0211038171224955e+39
14849.682622544635 4.077546182150947e+36 3.877912074151922e+36 1.4498811769769627e+39
16297.508346206434 4.047292316255272e+36 3.8484901149871076e+36 1.0401735825178342e+39
17886.495290574352 4.016000804098212e+36 3.817884169297308e+36 7.463118984827034e+38
19630.406500402725 3.983736253920241e+36 3.7860951558221114e+36 5.3553342071328615e+38
21544.346900318866 3.950554251974695e+36 3.7530969233175675e+36 3.843386625316263e+38
23644.894126454074 3.9165009403963185e+36 3.718830293961946e+36 2.7587454221131318e+38
25950.242113997374 3.881612314470334e+36 3.683195224888847e+36 1.980556462366532e+38
28480.35868435805 3.8459131580001905e+36 3.646040578146371e+36 1.4221590293083683e+38
31257.15849688235 3.809415513063712e+36 3.607150879177864e+36 1.0214122306214552e+38
34304.69286314919 3.7721165514052094e+36 3.566229330347046e+36 7.337564275346303e+37
37649.35806792471 3.7339956776006425e+36 3.5228762489631875e+36 5.272374103710051e+37
41320.124001153345 3.695010647196992e+36 3.476562058170849e+36 3.7893864847917616e+37
45348.78508128582 3.655092424544835e+36 3.426594046995172e+36 2.724234239422732e+37
49770.23564332114 3.614138433587101e+36 3.3720764612804717e+36 1.959011103872098e+37
54622.77217684337 3.572003769885196e+36 3.311864306433656e+36 1.4091262246950244e+37
59948.42503189409 3.5284898453531074e+36 3.2445128830501617e+36 1.0138803859795505e+37
65793.32246575682 3.483329834547931e+36 3.168228063960924e+36 7.29710009807854e+36
72208.09018385471 3.436170197203422e+36 3.080827388772186e+36 5.253433782479355e+36
79248.28983539186 3.3865474950416584e+36 2.979730077450774e+36 3.783275108956909e+36
86974.90026177834 3.3338597563217495e+36 2.862005767318878e+36 2.725375439662551e+36
95454.84566618348 3.2773318662122595e+36 2.724526878537514e+36 1.9639042235016237e+36
104761.57527896661 3.215975040268051e+36 2.564284899393067e+36 1.415635287416651e+36
114975.69953977356 3.148541641430899e+36 2.3789373477364537e+36 1.0207535442985583e+36
126185.6883066021 3.0734788446057173e+36 2.167630134631734e+36 7.362579072307018e+35
138488.63713938746 2.98888853626276e+36 1.9320577372312925e+36 5.3122623941852685e+35
151991.10829529332 2.8925071253863705e+36 1.6775476222152865e+36 3.834160164282824e+35
166810.0537200059 2.781728395190776e+36 1.4136918740288253e+36 2.7682333205782208e+35
183073.82802953696 2.6537053496591566e+36 1.1538244764879732e+36 1.9992963680837617e+35
200923.3002565046 2.5055815814924346e+36 9.127685940174654e+35 1.4444212050013192e+35
220513.07399030458 2.334913093299229e+36 7.031049750248814e+35 1.0438850805774329e+35
242012.82647943834 2.140333828354826e+36 5.315713915613818e+35 7.546636957535739e+34
265608.7782946684 1.922467288689099e+36 3.978587550455186e+35 5.457525108976759e+34
291505.3062825182 1.6849599465272035e+36 2.966216789632935e+35 3.9480162474914527e+34
319926.71377973846 1.435294338276621e+36 2.208948549070653e+35 2.856947154229717e+34
351119.17342151346 1.1847937673054878e+36 1.6443188196942191e+35 2.0680666833710544e+34
385352.8593710535 9.47176505704881e+35 1.2236082356805387e+35 1.4974925315357674e+34
422924.2874389499 7.355040464498457e+35 9.102346371108449e+34 1.08467863771918e+34
464158.8833612782 5.5851290565419556e+35 6.768850906680063e+34 7.859086043005477e+33
509413.80148163857 4.1838266113991294e+35 5.031794983701359e+34 5.696072322352882e+33
559081.0182512222 3.114987723854963e+35 3.7391501260327516e+34 4.1296105619117053e+33
613590.7273413176 2.314562862520705e+35 2.777539300944876e+34 2.994816244326835e+33
673415.0657750828 1.718693895466771e+35 2.0624338480268161e+34 2.1724796070790767e+33
739072.2033525775 1.2756928227361456e+35 1.5308311284887695e+34 1.5763848603612075e+33
811130.8307896872 9.464888958446852e+34 1.1357864740016038e+34 1.1441578888718069e+33
890215.0854450393 7.019425188629388e+34 8.423308735429071e+33 8.306584407159838e+32
977009.9572992247 5.20353419786651e+34 6.244239932208897e+33 6.032078159873787e+32
1072267.2220103254 3.8556718835121834e+34 4.626805441269725e+33 4.381410525131703e+32
1176811.9524349992 2.8556185578508826e+34 3.4267416628875386e+33 3.1831518445057592e+32
1291549.6650148828 2.1139377032505127e+34 2.5367247949001438e+33 2.3130785928715553e+32
1417474.1629268078 1.5641165833510537e+34 1.8769395678028258e+33 1.6811461220139518e+32
1555676.1439304722 1.1567080723693017e+34 1.3880494411583114e+33 1.2220644852194838e+32
1707352.6474706922 8.549654111925245e+33 1.0259583118363344e+33 8.884785560851412e+31
1873817.4228603868 6.315903990074877e+33 7.579083446591538e+32 6.46031146962278e+31
2056512.3083486515 4.66311763065258e+33 5.595740166336684e+32 4.69788056188568e+31
2257019.7196339215 3.440823339277075e+33 4.1289872763014446e+32 3.4164849186104936e+31
2477076.355991714 2.5373733703298427e+33 3.0448475054575842e+32 2.484686658933229e+31
2718588.2427329402 1.869961923533191e+33 2.2439539110598253e+32 1.8070171749110331e+31
2983647.24028334 1.37720131453019e+33 1.6526412849186014e+32 1.314115770180707e+31
3274549.1628777315 1.0136026680471363e+33 1.2163229863673077e+32 9.555773601660526e+30
3593813.6638046256 7.454740398020458e+32 8.945686894237325e+31 6.947634209289558e+30
3944206.059437664 5.478730985447933e+32 6.574476018854792e+31 5.0503615283788633e+30
4328761.281083061 4.023441261433948e+32 4.8281286591416175e+31 3.670246994113032e+30
4750810.162102793 2.9523813957605695e+32 3.542857047826731e+31 2.666400027961737e+30
5214008.287999695 2.164663921892436e+32 2.597596246496201e+31 1.9363287594615946e+30
5722367.65935022 1.5857584364749868e+32 1.9029097869548155e+31 1.2934869563812692e+30
6280291.44183426 1.160637360550638e+32 1.3927645861413334e+31 9.501336174376524e+29
6892612.104349709 8.486966838323662e+31 1.018435840335623e+31 6.977834066232837e+29
7564633.275546291 6.199938076840423e+31 7.439924375341358e+30 5.12332365209002e+29
8302175.681319752 4.524623041932935e+31 5.429546689289367e+30 3.760608229354297e+29
9111627.561154906 3.298509525896224e+31 3.958210730471886e+30 2.75941696854159e+29
10000000.0 2.4019950435784392e+31 2.8823935421102627e+30 2.023973897510113e+29
