# Eh = 1e9 GeV (no cooling)
# t / s # pi / 1/(GeV s) # k / 1/(GeV s) # c / 1/(GeV s)
100.0 2.0771808439875825e+43 2.4926170123439058e+42 8.021577795520054e+41
107.22672220103232 1.7701813333920802e+43 2.1242175996945096e+42 6.790050528437074e+41
114.97569953977356 1.5068825337326492e+43 1.8082590401591168e+42 5.7392777690375845e+41
123.28467394420659 1.2812732875362271e+43 1.53752794477133e+42 4.843856803740971e+41
132.19411484660287 1.0881473230373762e+43 1.3057767874137287e+42 4.081826391527697e+41
141.74741629268047 9.229972063932596e+42 1.1075966474758671e+42 3.434211542459674e+41
151.99110829529332 7.819221886934168e+42 9.383066262660199e+41 2.8846280011791328e+41
162.97508346206433 6.615481285747346e+42 7.938577541491687e+41 2.418938599717816e+41
174.7528400007683 5.589579087147862e+42 6.707494903390207e+41 2.0249546692352988e+41
187.3817422860383 4.716309710839488e+42 5.659571652005641e+41 1.6921765927188887e+41
200.9233002565048 3.97390775611061e+42 4.7686893064886736e+41 1.4115683574741734e+41
215.44346900318845 3.34359143351819e+42 4.01230971951165e+41 1.1753616423763617e+41
231.01297000831605 2.809165813765143e+42 3.3709989759215043e+41 9.768855633074934e+40
247.70763559917114 2.35667805046194e+42 2.8280136600537694e+41 8.104187122134829e+40
265.6087782946687 1.974117764083133e+42 2.3689413164804575e+41 6.710605705259964e+40
284.8035868435802 1.6511566709711047e+42 1.9813880048146202e+41 5.546197647693638e+40
305.3855508833416 1.3789223209179008e+42 1.654706784808598e+41 4.575169683697727e+40
327.45491628777285 1.1498014846297909e+42 1.3797617813115312e+41 3.767005454161835e+40
351.1191734215131 9.57269321260963e+41 1.1487231853098317e+41 3.0957328499577996e+40
376.49358067924675 7.957409675293952e+41 9.548891608662588e+40 2.539287936585309e+40
403.70172585965537 6.604426335954752e+41 7.92531160174292e+40 2.0789630288328882e+40
432.8761281083057 5.472996755477401e+41 6.567596105410416e+40 1.6989281194255014e+40
464.1588833612782 4.528394475869732e+41 5.434073370081847e+40 1.385816276756021e+40
497.7023564332114 3.741070254917428e+41 4.48928430510631e+40 1.1283648437567352e+40
533.6699231206312 3.0859214254365276e+41 3.703105709868383e+40 9.171053192839414e+39
572.236765935022 2.5416589494395625e+41 3.049990738787627e+40 7.440957085019425e+39
613.5907273413176 2.0902596039922678e+41 2.50831152434675e+40 6.026899102887182e+39
657.9332246575682 1.7164923497627783e+41 2.059790819350751e+40 4.873393856917736e+39
705.4802310718645 1.407509330161817e+41 1.6890111958952252e+40 3.9342293761278816e+39
756.463327554629 1.1524931590232766e+41 1.3829917905831423e+40 3.1710094168881324e+39
811.1308307896873 9.423532044744257e+40 1.130823845169155e+40 2.551908132742088e+39
869.7490026177834 7.694644889029729e+40 9.233573865201333e+39 2.0506088522793327e+39
932.60334688322 6.274436194359248e+40 7.529323431898407e+39 1.645402139999736e+39
1000.0 5.109568569297754e+40 6.131482282072034e+39 1.3184213402167452e+39
1072.2672220103232 4.1555603842816656e+40 4.986672460255357e+39 1.0549964817859694e+39
1149.7569953977356 3.375386004541963e+40 4.050463204733424e+39 8.431097972107086e+38
1232.8467394420659 2.7382841854087584e+40 3.2859410219088986e+39 6.729382206453027e+38
1321.9411484660286 2.2187459060477444e+40 2.6624950867860314e+39 5.3647010606142454e+38
1417.4741629268049 1.7956565530191283e+40 2.1547878632415567e+39 4.27185074742807e+38
1519.9110829529332 1.4515705739713045e+40 1.741884688457252e+39 3.397873817172552e+38
1629.7508346206434 1.1720995551691343e+40 1.4065194659540072e+39 2.6998450208714787e+38
1747.5284000076829 9.453971776707814e+39 1.1344766130041353e+39 2.1430379659018744e+38
1873.817422860383 7.617267129208672e+39 9.140720553432498e+38 1.6994113553529882e+38
2009.2330025650458 6.130986614929694e+39 7.357183936613412e+38 1.3463625466330823e+38
2154.4346900318847 4.9296784689137943e+39 5.9156141616494895e+38 1.0657039762714786e+38
2310.1297000831605 3.9598077469540633e+39 4.751769295503813e+38 8.428247899231058e+37
2477.0763559917114 3.1776537824804125e+39 3.813184538301561e+38 6.660058951341141e+37
2656.0877829466867 2.5475641570051457e+39 3.057076987865072e+38 5.25861718483749e+37
2848.035868435802 2.04050777785609e+39 2.448609332993904e+38 4.148862905647219e+37
3053.8555088334156 1.6328782781293496e+39 1.959453933408396e+38 3.2708498744682164e+37
3274.5491628777286 1.3055064017978281e+39 1.5666076818801044e+38 2.57676404535344e+37
3511.191734215131 1.042846449316724e+39 1.2514157389585683e+38 2.0285150001730638e+37
3764.9358067924672 8.323073608191431e+38 9.987688328061896e+37 1.5957938554651248e+37
4037.017258596558 6.637037181805762e+38 7.964444616757208e+37 1.2545101999122422e+37
4328.7612810830615 5.28805955780095e+38 6.345671468237956e+37 9.855363010672516e+36
4641.588833612782 4.2097247414038846e+38 5.051669688790516e+37 7.736998598528835e+36
4977.023564332114 3.3484923240275084e+38 4.01819078812179e+37 6.069773948643984e+36
5336.699231206313 2.661248272441537e+38 3.193497926364595e+37 4.758492572756496e+36
5722.3676593502205 2.113311113537525e+38 2.5359733357961623e+37 3.72784615072577e+36
6135.907273413176 1.6768112014989444e+38 2.0121734414425783e+37 2.9183076325051455e+36
6579.332246575683 1.3293751013057478e+38 1.5952501212845381e+37 2.2828603699176336e+36
7054.8023107186455 1.053059087814476e+38 1.2636709051537013e+37 1.7843961632537104e+36
7564.633275546291 8.334857121981175e+37 1.0001828544607088e+37 1.3936477241910153e+36
8111.308307896872 6.591456449420775e+37 7.909747737904904e+36 1.087547508826717e+36
8697.490026177835 5.208338390188733e+37 6.250006067120229e+36 8.479262764063342e+35
9326.0334688322 4.1119470045940233e+37 4.9343364046394503e+36 6.604820060520396e+35
10000.0 3.24355603522033e+37 3.892267241575465e+36 5.139637211684597e+35
10722.672220103232 2.556319109167338e+37 3.0675829304578434e+36 3.995259603281509e+35
11497.569953977356 2.012897967593845e+37 2.4154775606850742e+36 3.102186125315936e+35
12328.467394420659 1.5835573930068945e+37 1.9002688712719258e+36 2.405840278743729e+35
13219.411484660288 1.2446365095257917e+37 1.4935638111665894e+36 1.8633906776891216e+35
14174.741629268048 9.77323273179764e+36 1.1727879276081334e+36 1.441243533099611e+35
15199.11082952933 7.666729355200793e+36 9.200075224612538e+35 1.1130663433718765e+35
16297.508346206469 6.008226248401447e+36 7.20987149680559e+35 8.582311984316753e+34
17475.28400007683 4.703634172047912e+36 5.644361005458442e+35 6.605893159261248e+34
18738.174228603868 3.678387540677527e+36 4.4140650480317435e+35 5.075068713960576e+34
20092.33002565046 2.8734412555475825e+36 3.44812950604678e+35 3.891068227444274e+34
21544.346900318866 2.2420784236414468e+36 2.6904941078935186e+35 2.976730363910715e+34
23101.29700083158 1.747366810876555e+36 2.096840172680725e+35 2.2718221744565987e+34
24770.76355991714 1.3601338470609482e+36 1.632160616184246e+35 1.7293642403688588e+34
26560.87782946684 1.0573557678013879e+36 1.2688269211370828e+35 1.3127470169474105e+34
28480.35868435805 8.208772245366903e+35 9.850526692696741e+34 9.934692228573467e+33
30538.555088334124 6.363943790600106e+35 7.636732547368426e+34 7.49365040997423e+33
32745.491628777316 4.92647904406052e+35 5.9117748518262405e+34 5.632152455209943e+33
35111.917342151275 3.807830738286837e+35 4.569396885135421e+34 4.2165972842876383e+33
37649.35806792471 2.9384274765326145e+35 3.5261129712150153e+34 3.1434652342770405e+33
40370.1725859655 2.2636598000132037e+35 2.7163917595350434e+34 2.3326630943810587e+33
43287.612810830615 1.7407049998723356e+35 2.0888459994770772e+34 1.7223230902314368e+33
46415.88833612782 1.3360174644888105e+35 1.6032209571028023e+34 1.2647410139107255e+33
49770.23564332114 1.023346705169534e+35 1.228016045986082e+34 9.232063821054549e+32
53366.99231206313 7.821734269663991e+34 9.386081121935452e+33 6.695307253954668e+32
57223.676593502205 5.964765252664726e+34 7.157718301930755e+33 4.8212193998157076e+32
61359.072734131754 4.53761833528879e+34 5.445142001382758e+33 3.444854936769472e+32
65793.32246575682 3.4429773898172007e+34 4.131572867049353e+33 2.440590825111615e+32
70548.02310718645 2.6051415602815286e+34 3.126169871784502e+33 1.713075894733929e+32
75646.3327554629 1.9653039046342166e+34 2.3583646851436294e+33 1.1902108952887915e+32
81113.08307896872 1.477846129666979e+34 1.77341535528648e+33 8.177110944370487e+31
86974.90026177834 1.1074336501062463e+34 1.3289203798922766e+33 5.549012245113128e+31
93260.334688322 8.267404594333877e+33 9.920885511444655e+32 3.714691478846685e+31
100000.0 6.14669174502927e+33 7.376030092729568e+32 2.449645841643054e+31
