# Enu = 1e6 GeV (with cooling)
# t / s # pi / 1/(GeV s) # k / 1/(GeV s) # d0 / 1/(GeV s)
1000.0 3.62956112704324e+33 1.0528645716459776e+33 8.107121518430795e+36
1097.4987654930555 4.232435095870325e+33 1.2355900921124549e+33 9.378792366838313e+36
1204.5035402587823 4.937905781154644e+33 1.4515590566602226e+33 1.0856114678962697e+37
1321.9411484660286 5.762857355786307e+33 1.706864997908061e+33 1.2571343310375495e+37
1450.8287784959402 6.726651833672356e+33 2.0086847466243123e+33 1.456107499123526e+37
1592.2827933410922 7.851390696977339e+33 2.3654560047597692e+33 1.68664788578154e+37
1747.5284000076829 9.162176202374007e+33 2.7870788129283837e+33 1.9533327341155208e+37
1917.9102616724888 1.0687358896671672e+34 3.285142734893909e+33 2.261167080591826e+37
2104.9041445120197 1.2458755330536297e+34 3.873180810570427e+33 2.615490622235259e+37
2310.1297000831605 1.4511820698932763e+34 4.566950696528947e+33 3.0217846640602375e+37
2535.3644939701117 1.6885750118904178e+34 5.384742480901637e+33 3.485318208939284e+37
2782.559402207126 1.9623485501737051e+34 6.347711078176638e+33 4.010540915525993e+37
3053.8555088334156 2.2771595218220684e+34 7.48022931293051e+33 4.600088126298131e+37
3351.6026509388407 2.637999523679332e+34 8.810255340174845e+33 5.253212443733513e+37
3678.379771828634 3.050147601256415e+34 1.0369705008969549e+34 5.963413088227681e+37
4037.017258596554 3.5191001612068605e+34 1.2194816041320488e+34 6.715044075298744e+37
4430.621457583882 4.0504749965809425e+34 1.432648657875729e+34 7.47885090106395e+37
4862.601580065353 4.649887085458187e+34 1.6810565586993485e+34 8.206917365405209e+37
5336.699231206313 5.322794932830771e+34 1.9698067197838876e+34 8.828704058175413e+37
5857.020818056667 6.074317803254871e+34 2.3045275258369706e+34 9.251944694550955e+37
6428.073117284319 6.909026358326528e+34 2.691369879255956e+34 9.374562511281117e+37
7054.8023107186455 7.83071165322461e+34 3.136983404983376e+34 9.11366393324042e+37
7742.63682681127 8.842140289688958e+34 3.648468521802753e+34 8.449151630829454e+37
8497.534359086447 9.944806409491927e+34 4.23329944209008e+34 7.458915732282644e+37
9326.0334688322 1.1138693867178118e+35 4.899213341746044e+34 6.305663380576745e+37
10235.31021899027 1.2422064021289327e+35 5.654061541960882e+34 5.163064518965756e+37
11233.240329780265 1.3791285721574518e+35 6.505619670623425e+34 4.140618690388125e+37
12328.467394420659 1.5240723866774811e+35 7.461355489355789e+34 3.2748476734534147e+37
13530.477745798076 1.676270112436783e+35 8.528155413172611e+34 2.563639498729828e+37
14849.682622544635 1.834754391007103e+35 9.712013662137303e+34 1.9906755215457291e+37
16297.508346206434 1.998371862963676e+35 1.1017691323773186e+35 1.5353157171306885e+37
17886.495290574352 2.165805784519541e+35 1.2448356103804044e+35 1.1770693475702435e+37
19630.406500402725 2.335606902186274e+35 1.4005216808225012e+35 8.974994418406547e+36
21544.346900318866 2.5062311592901753e+35 1.5687169118941247e+35 6.808283782917992e+36
23644.894126454074 2.676082208177197e+35 1.749047040272027e+35 5.139423594409377e+36
25950.242113997374 2.8435562692260277e+35 1.9408460510641945e+35 3.861427428458261e+36
28480.35868435805 3.007086669040105e+35 2.14313422276792e+35 2.88813674626087e+36
31257.15849688235 3.165185431982012e+35 2.354602883067313e+35 2.1508469750798072e+36
34304.69286314919 3.316479581915286e+35 2.5736056990685337e+35 1.59521775601817e+36
37649.35806792471 3.459740292003441e+35 2.7981551262715885e+35 1.1785824710832256e+36
41320.124001153345 3.593903629943807e+35 3.0259212336983946e+35 8.67670417392312e+35
45348.78508128582 3.71808230107701e+35 3.254228629095709e+35 6.3671150668374184e+35
49770.23564332114 3.831568409504914e+35 3.480045810516597e+35 4.658779497601109e+35
54622.77217684337 3.933827767967132e+35 3.699960234186095e+35 3.400148780296246e+35
59948.42503189409 4.0244866430151644e+35 3.9101321065624354e+35 2.4761480171871756e+35
65793.32246575682 4.103312000968742e+35 4.1062209868101075e+35 1.7999566749888085e+35
72208.09018385471 4.170186324689662e+35 4.283282681615858e+35 1.3064747687263166e+35
79248.28983539186 4.225077923430574e+35 4.435641123653441e+35 9.471732919790992e+34
86974.90026177834 4.268007393412135e+35 4.556753159402313e+35 6.860716418001872e+34
95454.84566618348 4.2990105488470024e+35 4.639106320043587e+35 4.966238718302844e+34
104761.57527896661 4.318097781053747e+35 4.6742235292850645e+35 3.59330206974361e+34
114975.69953977356 4.3252094744875774e+35 4.6528946072242945e+35 2.5992095616762583e+34
126185.6883066021 4.3201668876676545e+35 4.56580438809245e+35 1.8798713132228457e+34
138488.63713938746 4.3026179036657255e+35 4.404754635177144e+35 1.3595585969330543e+34
151991.10829529332 4.271977441381004e+35 4.1646233957829445e+35 9.832913440953915e+33
166810.0537200059 4.227363370163298e+35 3.84597907682275e+35 7.112171449498756e+33
183073.82802953696 4.167530913294285e+35 3.457786775905771e+35 5.1448279750699924e+33
200923.3002565046 4.090812384974213e+35 3.018983193307517e+35 3.7221553915915655e+33
220513.07399030458 3.9950755047115655e+35 2.557292535218055e+35 2.693236196555929e+33
242012.82647943834 3.877723354231449e+35 2.1043194835123222e+35 1.9489833977561295e+33
265608.7782946684 3.73577273571168e+35 1.688125118731036e+35 1.4105553695109363e+33
291505.3062825182 3.566064082416258e+35 1.3268848724040963e+35 1.0209695100826117e+33
319926.71377973846 3.365670010347282e+35 1.0270607096720598e+35 7.390377862506338e+32
351119.17342151346 3.1325682782102645e+35 7.861096801452555e+34 5.349841784289383e+32
385352.8593710535 2.8666043330369415e+35 5.967469001416924e+34 3.872787014087245e+32
422924.2874389499 2.5706557818707617e+35 4.502227040381808e+34 2.8035060096848756e+32
464158.8833612782 2.251704745898101e+35 3.38096330462911e+34 2.029365563337305e+32
509413.80148163857 1.9212681427220356e+35 2.5298449087667504e+34 1.468874137862457e+32
559081.0182512222 1.594512934602997e+35 1.8876659849959986e+34 1.0630600349473719e+32
613590.7273413176 1.2877051501414078e+35 1.405337305035893e+34 7.69240360375252e+31
673415.0657750828 1.0145733813009367e+35 1.0443360272559636e+34 5.565167182956535e+31
739072.2033525775 7.8321947726109865e+34 7.748819519671466e+33 4.0251830372586454e+31
811130.8307896872 5.9523625971191465e+34 5.741979478570226e+33 2.910463548072113e+31
890215.0854450393 4.472123513149161e+34 4.2499791904865484e+33 2.103700965498287e+31
977009.9572992247 3.332101323348202e+34 3.142383222905189e+33 1.5199370266965842e+31
1072267.2220103254 2.467539178536169e+34 2.321194745500353e+33 1.0976388706921875e+31
1176811.9524349992 1.8189721488869944e+34 1.7130321384209792e+33 7.922389448426818e+30
1291549.6650148828 1.3362279198116294e+34 1.2630880326886502e+33 5.714577120356559e+30
1417474.1629268078 9.789580936197756e+33 9.305119893906897e+32 4.1191658838025826e+30
1555676.1439304722 7.156695618514331e+33 6.84907210128914e+32 2.966848368714543e+30
1707352.6474706922 5.22261217124056e+33 5.03686843248238e+32 2.1350265828549813e+30
1873817.4228603868 3.8053677462318856e+33 3.700870773097945e+32 1.534939494139673e+30
2056512.3083486515 2.768882123465599e+33 2.7167859846437073e+32 1.1023371303264448e+30
2257019.7196339215 2.0120800917304615e+33 1.9925428268415133e+32 7.907237027354164e+29
2477076.355991714 1.4602583046607785e+33 1.4599973691035153e+32 5.664619199067754e+29
2718588.2427329402 1.0584051114197523e+33 1.0687571071174241e+32 4.052258303241477e+29
2983647.24028334 7.661179249755977e+32 7.815877739473899e+31 2.8943082780897995e+29
3274549.1628777315 5.53781365212398e+32 5.710004349906361e+31 2.0637176465803423e+29
3593813.6638046256 3.9971848215592756e+32 4.167177934444768e+31 1.4687421644601724e+29
3944206.059437664 2.8808128653370447e+32 3.0379481528285004e+31 1.0431761841474118e+29
4328761.281083061 2.072956731554434e+32 2.2122586876414225e+31 7.392788205960266e+28
4750810.162102793 1.4891785493268687e+32 1.6091329137507565e+31 5.226528003263281e+28
5214008.287999695 1.0679450925760462e+32 1.1690422805071757e+31 3.6853809666990645e+28
5722367.65935022 7.644656942050363e+31 8.482642754976108e+30 3.459997293971966e+28
6280291.44183426 5.461752783058004e+31 6.147146990599172e+30 2.4960605658859036e+28
6892612.104349709 3.8942646274155714e+31 4.4487152942042016e+30 1.7975421326720835e+28
7564633.275546291 2.770694718947921e+31 3.2150635079623443e+30 1.2920613959427259e+28
8302175.681319752 1.9668336866777349e+31 2.320127341474297e+30 9.268250129168965e+27
9111627.561154906 1.3928466513719583e+31 1.6717552804474964e+30 6.633575711331115e+27
10000000.0 9.838548874497774e+30 1.2026554052336817e+30 4.7364361577236053e+27
