# `D+` Integrated Spectrum / 1/GeV - 2024/07/18 22:35:23
# Magnetar:
#     R = 1e+06 cm
#     B = 3.16e+14 G
#     o = 1e+04 rad / s
#     chi = 0.95 rad
#     I = 1e+45 g * cm**2
#     mu = 1.58e+32 erg / G
#     tsd = 3.24e+03 s
#     lum = 1.54e+49 erg / s
#     E = 5.27e+11 GeV
#     spec = 2.2e+39
#     n = 3.09e+18 1 / cm**3
# Energy / GeV # Spectrum (1e3 - 1e3) / 1/GeV # Spectrum (1e4 - 1e5) / 1/GeV # Spectrum (1e3 - 1e7) / 1/GeV
100000.0   7.4181712732723345e+43   2.4800162762718674e+42   7.686605611775454e+43
117681.19524349991   5.404276800123166e+43   1.9917513489628626e+42   5.619834728780584e+43
138488.63713938717   3.9274091846902523e+43   1.5994335688189348e+42   4.1004842549796964e+43
162975.08346206436   2.8473018924199795e+43   1.2842084958625824e+42   2.9862446435697125e+43
191791.02616724887   2.059408425536775e+43   1.0309269010839646e+42   2.1709279900731154e+43
225701.97196339216   1.4860989602003505e+43   8.274166417306595e+41   1.5755857256207075e+43
265608.7782946684   1.0699310859089903e+43   6.638976344799807e+41   1.1417159321050683e+43
312571.58496882353   7.685376479987755e+42   5.325118060789545e+41   8.26100229391704e+42
367837.97718286345   5.507646859010382e+42   4.269454278099396e+41   5.969007763514884e+42
432876.12810830615   3.937684583979503e+42   3.421256807579326e+41   4.307244079084296e+42
509413.8014816375   2.8084334270364135e+42   2.7397686665890423e+41   3.1042411298477805e+42
599484.2503189408   1.9980335185985914e+42   2.192245454073527e+41   2.234593268252077e+42
705480.2310718645   1.4178074657780432e+42   1.7523818255652333e+41   1.6067749250587833e+42
830217.5681319735   1.0033736303997366e+42   1.3990473849449414e+41   1.1541169216836297e+42
977009.9572992247   7.080937343810926e+41   1.1152711343819267e+41   8.281440431799245e+41
1149756.9953977356   4.98256057568968e+41   8.8742549101777e+40   5.93669815770095e+41
1353047.7745798077   3.495444106823068e+41   7.04570352577606e+40   4.2519437374568515e+41
1592282.793341094   2.444565141024041e+41   5.579252546663751e+40   3.0426556885841824e+41
1873817.422860383   1.7042128917993786e+41   4.404437748476693e+40   2.175500259573458e+41
2205130.739903046   1.1842918873566274e+41   3.4646947440231928e+40   1.5542605121627922e+41
2595024.2113997373   8.20380602152531e+40   2.7145719381792215e+40   1.1095918382824395e+41
3053855.5088334125   5.665309074595775e+40   2.117474976238482e+40   7.91576752272591e+40
3593813.6638046256   3.900620413551787e+40   1.643852379033954e+40   5.643231767490596e+40
4229242.8743894985   2.6780212593665913e+40   1.2697527566360878e+40   4.0205154430994228e+40
4977023.564332114   1.8337812501560958e+40   9.75693885340662e+39   2.8626459271770093e+40
5857020.818056662   1.2526430476603256e+40   7.457871817188311e+39   2.037031517296373e+40
6892612.104349695   8.53792385775238e+39   5.670632290429198e+39   1.4487160109321082e+40
8111308.307896872   5.807949215316973e+39   4.289487451691373e+39   1.0297558375079557e+40
9545484.566618327   3.94400555670792e+39   3.228534504730099e+39   7.31576267119106e+39
11233240.329780266   2.6741788905180512e+39   2.4183522755317433e+39   5.1947745670796844e+39
13219411.484660286   1.8107949255333995e+39   1.8032167478784953e+39   3.686899192908915e+39
15556761.439304722   1.2247685336582895e+39   1.338741082544349e+39   2.6154532598151133e+39
18307382.802953698   8.275926176357956e+38   9.898565958973314e+38   1.854492381711332e+39
21544346.900318824   5.587539687801925e+38   7.290850739419209e+38   1.3142979921728558e+39
25353644.939701114   3.769827757081235e+38   5.3507011659984956e+38   9.309965896843666e+38
29836472.402833343   2.541949674901582e+38   3.913421114264794e+38   6.59140865876601e+38
35111917.34215128   1.713157657513421e+38   2.8529301310222917e+38   4.664117947537883e+38
41320124.00115334   1.1541075380092676e+38   2.0733677665608966e+38   3.2983815516974563e+38
48626015.80065353   7.772149419650218e+37   1.502309534431412e+38   2.3310077442625328e+38
57223676.5935022   5.232430567320396e+37   1.0853540146784221e+38   1.6461154897442157e+38
67341506.57750829   3.521676074698998e+37   7.8185415323787945e+37   1.1614543751413557e+38
79248289.8353917   2.3696813050948324e+37   5.615865372012274e+37   8.18668344200428e+37
93260334.688322   1.594157187803118e+37   4.021773945920352e+37   5.763702231131256e+37
109749876.54930545   1.0721960340873515e+37   2.871304836748948e+37   4.052182250796677e+37
129154966.50148827   7.209669838708205e+36   2.043277556774668e+37   2.844174822188923e+37
151991108.2952933   4.84669676080256e+36   1.4489729864438006e+37   1.9923533620843326e+37
178864952.9057435   3.257251903677654e+36   1.0236385364712716e+37   1.3923741783193215e+37
210490414.45120218   2.1883243935312727e+36   7.201488205127509e+36   9.70359477644191e+36
247707635.5991714   1.4696035679720087e+36   5.0429824627281805e+36   6.740186569816959e+36
291505306.28251696   9.864674406692972e+35   3.513209182356049e+36   4.6635267477563704e+36
343046928.63149124   6.617849980077861e+35   2.4332813084230025e+36   3.2119155525060654e+36
403701725.85965496   4.436603558799152e+35   1.6742830399380093e+36   2.200322906849744e+36
475081016.21027935   2.9718079670950104e+35   1.1435210660951105e+36   1.4979888029199836e+36
559081018.2512223   1.9886179692749957e+35   7.744999220522588e+35   1.0125604048855607e+36
657933224.6575682   1.3290819608105367e+35   5.196323711132507e+35   6.788612195389082e+35
774263682.6811278   8.869806274439059e+34   3.449515995831359e+35   4.5094154975682056e+35
911162756.1154869   5.908957704891533e+34   2.2628404395202205e+35   2.964525534639851e+35
1072267222.0103253   3.9281820476634354e+34   1.4648493948412314e+35   1.9266513255256735e+35
1261856883.0660183   2.6048316261812886e+34   9.344501425570984e+34   1.2365268746935022e+35
1484968262.2544634   1.7221390562546736e+34   5.865532469642263e+34   7.829704105486625e+34
1747528400.007683   1.1345297917177545e+34   3.6175084958096686e+34   4.887629472555342e+34
2056512308.3486514   7.442893498522484e+33   2.1889844470556344e+34   3.0063917259369358e+34
2420128264.7943835   4.858697633046527e+33   1.2978536076535577e+34   1.8218414707254305e+34
2848035868.4357934   3.1533533697717113e+33   7.530715379457389e+33   1.087846181728338e+34
3351602650.9388475   2.032657103081832e+33   4.2719062298325655e+33   6.403606277509299e+33
3944206059.437648   1.2998457108541253e+33   2.3669526964455083e+33   3.7185468707582026e+33
4641588833.612773   8.235265976725617e+32   1.2798536231402872e+33   2.1316020390966514e+33
5462277217.684337   5.161284506883433e+32   6.746377452004558e+32   1.2067713643122932e+33
6428073117.284319   3.1942678194400196e+32   3.461223887445204e+32   6.747848313682357e+32
7564633275.54629   1.9482614231859115e+32   1.72407357503354e+32   3.725267091123324e+32
8902150854.450356   1.1683969196296626e+32   8.306891088493267e+31   2.028724204718898e+32
10476157527.896662   6.8717333456921895e+31   3.8516769489059447e+31   1.0884008474780733e+32
12328467394.420633   3.951708832651602e+31   1.7071529697624958e+31   5.742470611846502e+31
14508287784.95943   2.214547906883475e+31   7.170932519204148e+30   2.973125501293125e+31
17073526474.706886   1.204813996770881e+31   2.8235167246171286e+30   1.5065861940327339e+31
20092330025.65046   6.336462026831988e+30   1.0274290489784481e+30   7.448571253340664e+30
23644894126.45407   3.2064260616960264e+30   3.3911495036104326e+29   3.579357280575447e+30
27825594022.07126   1.553091299900199e+30   9.900074028972245e+28   1.6641834211900618e+30
32745491628.777317   7.160160680260083e+29   2.468417655988611e+28   7.444521269947389e+29
38535285937.105194   3.122557176914411e+29   4.996711740115453e+27   3.1821823954104584e+29
45348785081.28591   1.2791379065520395e+29   7.601744807198149e+26   1.2886661246266687e+29
53366992312.06302   4.880311164645551e+28   7.665596860254256e+25   4.890641782098358e+28
62802914418.34247   1.714612065334087e+28   4.1187108544426337e+24   1.7152338452080513e+28
73907220335.25775   5.457607021245216e+27   8.488448843581415e+22   5.457757390671662e+27
86974900261.77835   1.5368778473867743e+27   5.355952997906322e+20   1.5368790576263943e+27
102353102189.90268   3.699572011845427e+26   1.255500102315628e+16   3.699572013422905e+26
120450354025.87787   7.239735421412778e+25   0.0   7.239735421412778e+25
141747416292.68076   1.0666311593984301e+25   0.0   1.0666311593984301e+25
166810053720.00558   1.0438315389361625e+24   0.0   1.0438315389361625e+24
196304065004.02686   5.455541044865986e+22   0.0   5.455541044865986e+22
231012970008.3158   1.0964161500433501e+21   0.0   1.0964161500433501e+21
271858824273.294   6.667264763825081e+18   0.0   6.667264763825081e+18
319926713779.73846   98868635897351.27   0.0   98868635897351.27
376493580679.2456   0.0   0.0   0.0
443062145758.3887   0.0   0.0   0.0
521400828799.9674   0.0   0.0   0.0
613590727341.3163   0.0   0.0   0.0
722080901838.5457   0.0   0.0   0.0
849753435908.6438   0.0   0.0   0.0
1000000000000.0   0.0   0.0   0.0
