# `pi` Integrated Spectrum / 1/GeV - 2024/07/19 13:13:22
# Magnetar:
#     R = 1e+06 cm
#     B = 3.16e+14 G
#     o = 1e+04 rad / s
#     chi = 0.95 rad
#     I = 1e+45 g * cm**2
#     mu = 1.58e+32 erg / G
#     tsd = 3.24e+03 s
#     lum = 1.54e+49 erg / s
#     E = 5.27e+11 GeV
#     spec = 2.2e+39
#     n = 3.09e+18 1 / cm**3
# Energy / GeV # Spectrum (1e3 - 1e3) / 1/GeV # Spectrum (1e4 - 1e5) / 1/GeV # Spectrum (1e3 - 1e7) / 1/GeV
100000.0   1.514900807279039e+42   2.0900992792610106e+43   5.972732135353694e+43
117681.19524349991   1.080165509574286e+42   1.4901520126495798e+43   4.478421884460749e+43
138488.63713938717   7.699287865565203e+41   1.0613683757531647e+43   3.35407267707935e+43
162975.08346206436   5.486068926284188e+41   7.55267873620876e+42   2.5089704256827727e+43
191791.02616724887   3.907675128447856e+41   5.369789402269058e+42   1.8744461738457613e+43
225701.97196339216   2.78238934281882e+41   3.8146286901362185e+42   1.3985631220876449e+43
265608.7782946684   1.9804100166597575e+41   2.7076927053444915e+42   1.0420741167513478e+43
312571.58496882353   1.4090464953551048e+41   1.920473425882018e+42   7.753480694252437e+42
367837.97718286345   1.0021286856735953e+41   1.3610863109348424e+42   5.76034818831731e+42
432876.12810830615   7.1243346695190145e+40   9.63907478373577e+41   4.272923748641856e+42
509413.8014816375   5.062699961229491e+40   6.821169456879097e+41   3.164421527978444e+42
599484.2503189408   3.5960957876952695e+40   4.823424720107598e+41   2.3394968363381146e+42
705480.2310718645   2.553202909448734e+40   3.4081824936405456e+41   1.726526576019527e+42
830217.5681319735   1.8119155904381322e+40   2.406338160876857e+41   1.271767770214073e+42
977009.9572992247   1.2852344846404303e+40   1.6976620514844262e+41   9.34941097602779e+41
1149756.9953977356   9.11195275341662e+39   1.196739082700682e+41   6.858947973097664e+41
1353047.7745798077   6.45680696479018e+39   8.429327792654996e+40   5.020869935125476e+41
1592282.793341094   4.572920246438217e+39   5.932284897548575e+40   3.666874850334632e+41
1873817.422860383   3.236911296546381e+39   4.171342203622758e+40   2.6714800688641976e+41
2205130.739903046   2.2899226057418648e+39   2.930504710530397e+40   1.941264600428758e+41
2595024.2113997373   1.619029412269832e+39   2.0568787632615885e+40   1.406783466559912e+41
3053855.5088334125   1.1439927670403301e+39   1.442315809803118e+40   1.0164972247007882e+41
3593813.6638046256   8.078238438208505e+38   1.0103736117723218e+40   7.322197609619983e+40
4229242.8743894985   5.700654127486545e+38   7.070610903552062e+39   5.257087971622316e+40
4977023.564332114   4.020098183410152e+38   4.942734467248746e+39   3.7611553106104027e+40
5857020.818056662   2.8329661200281687e+38   3.451387865465763e+39   2.680794804502533e+40
6892612.104349695   1.9949276294549417e+38   2.407219689220033e+39   1.9030730485623122e+40
8111308.307896872   1.403723956459234e+38   1.676914629351344e+39   1.3451422238227113e+40
9545484.566618327   9.86943514595488e+37   1.1666903145192529e+39   9.463673405462676e+39
11233240.329780266   6.93338925377173e+37   8.106324684974904e+38   6.624807794991942e+39
13219411.484660286   4.86662333804464e+37   5.624559970899122e+38   4.61249557959259e+39
15556761.439304722   3.412907013908933e+37   3.896902205574977e+38   3.192696824338897e+39
18307382.802953698   2.391228533641757e+37   2.695781815901127e+38   2.1959894872481888e+39
21544346.900318824   1.6737968713679853e+37   1.8618706902410505e+38   1.500124416980118e+39
25353644.939701114   1.1704547973383677e+37   1.2837374363535418e+38   1.0171969938411228e+39
29836472.402833343   8.176405424723921e+36   8.835354259543542e+37   6.842352285368735e+38
35111917.34215128   5.705750867941756e+36   6.06943646199511e+37   4.56311235187581e+38
41320124.00115334   3.9773570445970784e+36   4.161031249732721e+37   3.0151261979152874e+38
48626015.80065353   2.7694910199583334e+36   2.8466159094973573e+37   1.972817765092387e+38
57223676.5935022   1.926312470018649e+36   1.9430058142843952e+37   1.2775890890719042e+38
67341506.57750829   1.3383859957333808e+36   1.323040211278093e+37   8.185974370969612e+37
79248289.8353917   9.28931539511441e+35   8.985778353467055e+36   5.188961701766706e+37
93260334.688322   6.44130173504562e+35   6.086180972359533e+36   3.2547986115875155e+37
109749876.54930545   4.4629417211469445e+35   4.110126173717317e+36   2.0215750855824563e+37
129154966.50148827   3.0905874306549835e+35   2.766890464078676e+36   1.244705333426232e+37
151991108.2952933   2.1399970347526542e+35   1.8563087238669236e+36   7.608681450617543e+36
178864952.9057435   1.4825618567792866e+35   1.2408317146746059e+36   4.6253598181938523e+36
210490414.45120218   1.0286118143166125e+35   8.261321613844238e+35   2.800576276949698e+36
247707635.5991714   7.156948478036178e+34   5.476642433381607e+35   1.6910071828440592e+36
291505306.28251696   5.001371961440326e+34   3.613636486254364e+35   1.019097632367864e+36
343046928.63149124   3.5156225716227874e+34   2.3722334066953297e+35   6.1337962468236556e+35
403701725.85965496   2.4899083279868157e+34   1.5486363194055605e+35   3.689101905183345e+35
475081016.21027935   1.7796710305112777e+34   1.0048316568820358e+35   2.218449010857267e+35
559081018.2512223   1.2855484405982718e+34   6.476450766836247e+34   1.3349185145325988e+35
657933224.6575682   9.394225294687158e+33   4.1438509163747765e+34   8.046452669613026e+34
774263682.6811278   6.947227137390703e+33   2.630245047707973e+34   4.865652312126327e+34
911162756.1154869   5.197002425466634e+33   1.6550152368397179e+34   2.9574575900996136e+34
1072267222.0103253   3.92764868642129e+33   1.0316116335087249e+34   1.8114078745571063e+34
1261856883.0660183   2.9926467823131213e+33   6.366176629795275e+33   1.1212679671981779e+34
1484968262.2544634   2.2926706584520573e+33   3.8882081501940813e+33   7.036729436638834e+33
1747528400.007683   1.7603452337943483e+33   2.3509908422843917e+33   4.49045541031971e+33
2056512308.3486514   1.3498188018343906e+33   1.409374177837307e+33   2.920298738672686e+33
2420128264.7943835   1.0298280053134552e+33   8.407733082479116e+32   1.9371128004613e+33
2848035868.4357934   7.806049756374534e+32   5.012787258738735e+32   1.3094432917370807e+33
3351602650.9388475   5.874783076558652e+32   2.9977178416581603e+32   8.996148598452477e+32
3944206059.437648   4.386535998025537e+32   1.8035845521577295e+32   6.255540557888247e+32
4641588833.612773   3.246740285330014e+32   1.092921354507243e+32   4.380558667890482e+32
5462277217.684337   2.3797851230280115e+32   6.654411330857621e+31   3.0729637607891798e+32
6428073117.284319   1.7254029147713016e+32   4.0432855269727816e+31   2.148658773371477e+32
7564633275.54629   1.2357180071398485e+32   2.425049398809245e+31   1.490872004423556e+32
8902150854.450356   8.7283982638062e+31   1.417396105255216e+31   1.022813265579808e+32
10476157527.896662   6.069040267664883e+31   7.972776336285678e+30   6.9182458172750625e+31
12328467394.420633   4.1448055892088765e+31   4.2661072343502845e+30   4.602921704235189e+31
14508287784.95943   2.7728276039222766e+31   2.1439309363886045e+30   3.0054332149776586e+31
17073526474.706886   1.8112272744195602e+31   9.942117410449716e+29   1.9205442011585413e+31
20092330025.65046   1.1506779802564792e+31   4.144234690516926e+29   1.197073604025946e+31
23644894126.45407   7.076116468107615e+30   1.4896452664590337e+29   7.247212076072693e+30
27825594022.07126   4.187613651568805e+30   4.297626932075169e+28   4.2389535589598036e+30
32745491628.777317   2.367911751930112e+30   8.63197965639782e+27   2.3789522052186102e+30
38535285937.105194   1.268079532444092e+30   8.414381092679174e+26   1.2693314160985844e+30
45348785081.28591   6.358854144260694e+29   6.029590718560517e+24   6.359049940977349e+29
53366992312.06302   2.9385439962400223e+29   0.0   2.9385439962400223e+29
62802914418.34247   1.219942446192879e+29   0.0   1.219942446192879e+29
73907220335.25775   4.363837083188963e+28   0.0   4.363837083188963e+28
86974900261.77835   1.251090766528053e+28   0.0   1.251090766528053e+28
102353102189.90268   2.4894064008736545e+27   0.0   2.4894064008736545e+27
120450354025.87787   2.3794914919370096e+26   0.0   2.3794914919370096e+26
141747416292.68076   1.4476844157126939e+24   0.0   1.4476844157126939e+24
166810053720.00558   0.0   0.0   0.0
196304065004.02686   0.0   0.0   0.0
231012970008.3158   0.0   0.0   0.0
271858824273.294   0.0   0.0   0.0
319926713779.73846   0.0   0.0   0.0
376493580679.2456   0.0   0.0   0.0
443062145758.3887   0.0   0.0   0.0
521400828799.9674   0.0   0.0   0.0
613590727341.3163   0.0   0.0   0.0
722080901838.5457   0.0   0.0   0.0
849753435908.6438   0.0   0.0   0.0
1000000000000.0   0.0   0.0   0.0
