# `D0` Integrated Spectrum / 1/GeV - 2024/07/19 03:03:40
# Nucleus:
#     n = 1e+14 1/cm**3
#     d = 1e+15 cm
# Energy / GeV # Spectrum / 1/GeV
100000.0   1.1149056355800782e+20
101626.50893929951   1.0824705543514458e+20
103279.47319189525   1.0509767682949962e+20
104959.32305582266   1.0203970334157332e+20
106666.49582795388   9.907048919013427e+19
108401.43591783309   9.61874649510832e+19
110164.59496336569   9.338813536110055e+19
111956.43194838794   9.067007718423455e+19
113777.41332214902   8.80309371396323e+19
115628.01312073754   8.546842988866762e+19
117508.71309048076   8.298033607977429e+19
119420.00281335325   8.056450044933294e+19
121362.37983442418   7.821882997701365e+19
123336.34979137748   7.594129209401998e+19
125342.42654613995   7.372991294272055e+19
127381.13231864785   7.1582775686206325e+19
129452.9978227916   6.94980188663403e+19
131558.56240457052   6.74738348089189e+19
133698.37418249453   6.550846807459843e+19
135872.9901902709   6.360021395427607e+19
138082.97652180924   6.174741700765924e+19
140328.9084785873   5.994846964378423e+19
142611.37071941298   5.8201810742287516e+19
144930.9574126215   5.650592431426403e+19
147288.27239075018   5.485933820157892e+19
149683.92930772554   5.3260622813536485e+19
152118.55179861048   5.170838989983276e+19
154592.77364194786   5.020129135875762e+19
157107.2389247449   4.873801807963656e+19
159662.6022101425   4.731729881853108e+19
162259.5287078087   4.593789910624867e+19
164898.69444710648   4.459862018773467e+19
167580.78645307687   4.329829799194884e+19
170306.50292528427   4.203580213135438e+19
173076.55341957242   4.081003493016981e+19
175891.65903277326   3.961993048056239e+19
178752.55259042355   3.846445372598002e+19
181659.97883753286   3.734259957084614e+19
184614.69463245457   3.6253392015861772e+19
187617.46914391196   3.519588331818008e+19
190669.0840512252   3.4169153175742906e+19
193770.3337477989   3.317230793508398e+19
196922.02554791735   3.220447982192815e+19
200124.9798969035   3.1264826193932472e+19
203380.030584698   3.0352528814933574e+19
206688.0249629082   2.9466793150086603e+19
210049.82416539153   2.8606847681294164e+19
213466.30333242455   2.7771943242344858e+19
216938.35183851823   2.696135237319572e+19
220466.87352394077   2.617436869284852e+19
224052.7869300018   2.5410306290288394e+19
227697.025538168   2.466849913296383e+19
231400.5380130654   2.39483004923067e+19
235164.2884494351   2.3249082385802097e+19
238989.25662310477   2.257023503513355e+19
242876.43824604506   2.191116633994113e+19
246826.84522556924   2.1271301366745866e+19
250841.50592775413   2.065008185260268e+19
254921.46544514256   2.0046965723060855e+19
259067.78586880062   1.9461426624019722e+19
263281.546564802   1.8892953467080925e+19
267563.84445520455   1.8341049988009947e+19
271915.7943036019   1.7805234317929155e+19
276338.52900531725   1.728503856687725e+19
280833.199882317   1.678000841937975e+19
285400.97698292375   1.6289702741684531e+19
290043.04938639916   1.5813693200328294e+19
294760.62551248586   1.535156389170692e+19
299554.9334359816   1.490291098233408e+19
304427.22120642994   1.4467342359480648e+19
309378.7571730137   1.4044477291895902e+19
314410.8303147265   1.3633946100321526e+19
319524.7505759214   1.3235389837515354e+19
324721.8492073132   1.284845997751251e+19
330003.4791125282   1.2472818113857327e+19
335371.01520029287   1.2108135666548208e+19
340825.85474234517   1.1754093597444958e+19
346369.41773717344   1.1410382133894437e+19
352003.14727966825   1.1076700500338303e+19
357728.50993678696   1.075275665767317e+19
363546.99612933176   1.0438267050139488e+19
369460.12051993026   1.0132956359523176e+19
375469.4224073337   9.836557266458511e+18
381576.46612712526   9.548810218628248e+18
387782.84145894536   9.26946320566245e+18
394090.16404034477   8.998271540542407e+18
400500.07578736113   8.734997647323165e+18
407014.2453219439   8.479410854991687e+18
413634.3684063278   8.231287197284458e+18
420362.1683844718   7.990409218292515e+18
427199.3966306777   7.756565783687207e+18
434147.8330055092   7.529551897404488e+18
441209.286319119   7.309168523630817e+18
448385.59480211907   7.095222413937203e+18
455678.6265841069   6.887525939413457e+18
463090.2801799737   6.685896927658242e+18
470622.48498412815   6.490158504484797e+18
478277.20177274855   6.300138940206716e+18
486056.42321421386   6.115671500371106e+18
493962.1743878326   5.936594300811262e+18
501996.51331100793   5.762750166894098e+18
510161.5314749834   5.593986496841142e+18
518459.3543892913   5.43015512900591e+18
526892.1421350677   5.271112212993117e+18
535462.0899273613   5.116718084508953e+18
544171.4286865888   4.966837143834894e+18
553022.42561929   4.821337737820086e+18
562017.3848083188   4.680092045291213e+18
571158.6478126434   4.5429759657806735e+18
580448.5942768984   4.40986901147752e+18
589889.6425508494   4.28065420230811e+18
599484.2503189408   4.1552179640558377e+18
609234.9152400711   4.0334500294325565e+18
619144.1755977848   3.91524334201598e+18
629214.610961035   3.8004939629705994e+18
639448.8428556937   3.6891009804715223e+18
649849.5354469889   3.5809664217531566e+18
660419.3962330305   3.475995167707006e+18
671161.1767496286   3.374094869954694e+18
682077.6732865692   3.275175870324828e+18
693171.72761554   3.179151122664191e+18
704446.2277299037   3.085936116915704e+18
715904.1085964888   2.995448805397753e+18
727548.3529196233   2.907609531221102e+18
739381.9919175874   2.822340958781643e+18
751408.1061116962   2.739568006268934e+18
763629.8261282241   2.6592177801322066e+18
776050.3335133571   2.581219511447337e+18
788672.8615614156   2.505504494129574e+18
801500.6961565414   2.432006024938833e+18
814537.1766280737   2.3606593452255795e+18
827785.6966198472   2.2914015843669422e+18
841249.7049736119   2.2241717048442468e+18
854932.7066268384   2.1589104489143055e+18
868838.2635251193   2.0955602868284582e+18
882969.9955494083   2.0340653665545234e+18
897331.5814583519   1.9743714649581212e+18
911926.7598459298   1.9164259404012163e+18
926759.3301146884   1.860177686716714e+18
941833.153464796   1.8055770885193782e+18
957152.1538991856   1.7525759778143007e+18
972720.3192450537   1.7011275918653796e+18
988541.7021919574   1.651186532287336e+18
1004620.4213468132   1.602708725325758e+18
1020960.6623060475   1.5556513832908099e+18
1037566.6787451849   1.509972967111188e+18
1054442.7935261684   1.4656331499758162e+18
1071593.3998226712   1.422592782031847e+18
1089022.9622637306   1.3808138561082703e+18
1106736.0180959746   1.340259474435455e+18
1124737.1783647507   1.3008938163317658e+18
1143031.1291144786   1.2626821068291738e+18
1161622.632608502   1.2255905862107382e+18
1180516.5285688057   1.1895864804333972e+18
1199717.7354358856   1.1546379724105147e+18
1219231.2516491094   1.1207141741291805e+18
1239062.1569479157   1.0877850995780847e+18
1259215.613694151   1.0558216384624948e+18
1279696.8682159416   1.0247955306834304e+18
1300511.2521734098   9.946793415589421e+17
1321664.1839466037   9.65446437765928e+17
1343161.1700460154   9.370709639816006e+17
1365007.8065460138   9.095278202043238e+17
1387209.780541621   8.827926397340635e+17
1409772.8716289676   8.568417677933548e+17
1432702.9534098294   8.316522407701857e+17
1456005.9950206485   8.072017660647329e+17
1479688.0626863963   7.834687025224673e+17
1503755.3212997385   7.604320414365553e+17
1528214.0360258708   7.380713881030702e+17
1553070.5739334584   7.163669439129544e+17
1578331.4056521165   6.952994889651341e+17
1604003.1070568198   6.748503651856996e+17
1630092.3609797412   6.550014599383997e+17
1656605.9589499151   6.357351901122227e+17
1683550.8029612007   6.170344866722003e+17
1710933.9072690133   5.988827796599654e+17
1738762.4002162504   5.812639836310369e+17
1767043.5260889467   5.6416248351610035e+17
1795784.6470020968   5.4756312089400294e+17
1824993.2448161505   5.3145118066448314e+17
1854676.9230846975   5.1581237810902554e+17
1884843.4090337954   5.006328463285769e+17
1915500.555573528   4.8589912404714656e+17
1946656.3433422633   4.715981437706798e+17
1978318.8827841622   4.577172202908709e+17
2010496.416260497   4.442440395238867e+17
2043197.3201952705   4.311666476742819e+17
2076430.1072557748   4.18473440714629e+17
2110203.4285685965   4.061531541717069e+17
2144526.0759716653   3.941948532103193e+17
2179406.984302954   3.8258792300609696e+17
2214855.2337263594   3.713220593988872e+17
2250880.0520954616   3.603872598185559e+17
2287490.817355704   3.4977381447528954e+17
2324697.0599856456   3.394722978067073e+17
2362508.4654779453   3.294735601743002e+17
2400934.8768606517   3.197687198019675e+17
2439986.29725955   3.103491549495821e+17
2479672.8925021603   3.012064963147647e+17
2520004.9937640894   2.923326196562238e+17
2560993.1002584565   2.83719638632206e+17
2602647.8819690044   2.7535989784781517e+17
2644980.1824277197   2.6724596610510198e+17
2688001.0215376075   2.5937062985003587e+17
2731721.5984413736   2.5172688681062733e+17
2776153.294436798   2.4430793982062835e+17
2821307.6759394705   2.37107190823426e+17
2867196.49749377   2.3011823505086483e+17
2913831.7048327886   2.2333485537191776e+17
2961225.4379880317   2.1675101680625568e+17
3009390.0344497245   2.103608611979131e+17
3058338.032378432   2.0415870204440048e+17
3108082.173869064   1.9813901947670845e+17
3158635.408267819   1.9229645538584624e+17
3210010.8955431683   1.8662580869161542e+17
3262222.009711673   1.811220307494916e+17
3315282.3423194233   1.757802208915954e+17
3369205.705980267   1.705956220978236e+17
3424006.1379714254   1.6556361679338096e+17
3479697.903887688   1.606797227690036e+17
3536295.5013550464   1.5593958922030877e+17
3593813.6638046256   1.5133899290280944e+17
3652267.3643081756   1.46873834399198e+17
3711671.8194757667   1.4254013449565891e+17
3772042.4934169934   1.3833403066400707e+17
3833395.1017666054   1.3425177364657782e+17
3895745.615775501   1.3028972414088149e+17
3959110.266468459   1.2644434958109146e+17
4023505.548869293   1.2271222101357133e+17
4088948.2262948644   1.1909001006367667e+17
4155455.3347188793   1.1557448599118202e+17
4223044.1872066725   1.1216251283174587e+17
4291732.378422158   1.0885104662190323e+17
4361537.789208006   1.0563713270515509e+17
4432478.5912404   1.0251790311678238e+17
4504573.251759463   9.949057404509461e+16
4577840.538376616   9.655244336688054e+16
4652299.523960189   9.37008882548968e+16
4727969.591600391   9.093336285529574e+16
4804870.439655134   8.824739603294803e+16
4883022.086877885   8.564058918268138e+16
4962444.877628913   8.311061410451307e+16
5043159.487171358   8.065521094100619e+16
5125186.927053332   7.827218617494118e+16
5208548.550577666   7.595941068553728e+16
5293266.058360566   7.371481786151942e+16
5379361.503980698   7.153640176936931e+16
5466857.299720181   6.942221537514961e+16
5555776.222398878   6.737036881834107e+16
5646141.419303672   6.537902773616836e+16
5737976.41421414   6.344641163694635e+16
5831305.113526219   6.157079232101157e+16
5926151.812475553   5.975049234785145e+16
6022541.201461928   5.798388354808377e+16
6120498.372476703   5.6269385578972616e+16
6220048.825634718   5.460546452221333e+16
6321218.475812448   5.299063152275054e+16
6424033.659394191   5.142344146742941e+16
6528521.141127847   4.9902491702320936e+16
6634708.121092351   4.84264207875861e+16
6742622.241778349   4.699390728878649e+16
6852291.595284058   4.560366860357499e+16
6963744.730628222   4.425445982273256e+16
7077010.6611818895   4.294507262454966e+16
7192118.872221193   4.167433420157498e+16
7309099.328602918   4.044110621878836e+16
7427982.48256491   3.924428380227826e+16
7548799.281653431   3.808279455753206e+16
7671581.176779302   3.695559761647578e+16
7796360.130405237   3.5861682712419852e+16
7923168.624866262   3.4800069282098024e+16
8052039.670825469   3.376980559400579e+16
8183006.81586739   3.2769967902269696e+16
8316104.153230961   3.179965962530283e+16
8451366.330684721   3.0858010548519228e+16
8588828.559546258   2.994417605040545e+16
8728526.623848371   2.9057336351266336e+16
8870496.889654404   2.8196695783980736e+16
9014776.314524917   2.7361482086125656e+16
9161402.457138522   2.6550945712841424e+16
9310413.487069085   2.5764359169833044e+16
9461848.194721993   2.5001016365918384e+16
9615746.001432095   2.4260231984550704e+16
9772146.969725724   2.354134087376195e+16
9931091.813749801   2.2843697453986296e+16
10092621.909870485   2.216667514324213e+16
10256779.307444207   2.1509665799163852e+16
10423606.739764012   2.0872079177390696e+16
10593147.6351837   2.0253342405834536e+16
10765446.128423158   1.9652899474360924e+16
10940547.072057435   1.907021073943321e+16
11118496.048192699   1.8504752443281504e+16
11299339.380332217   1.7956016247171056e+16
11483124.145435112   1.7423508778358516e+16
11669898.186171474   1.6906751190333872e+16
11859710.123376707   1.6405278735960248e+16
12052609.368708413   1.5918640353133752e+16
12248646.137509307   1.544639826259634e+16
12447871.461879062   1.498812757754706e+16
12650337.203959038   1.4543415924704776e+16
12856096.069432965   1.4111863076488066e+16
13065201.621247198   1.369308059398652e+16
13277708.293554291   1.3286691480407024e+16
13493671.405883064   1.2892329844689224e+16
13713147.177539457   1.2509640574991066e+16
13936192.742241435   1.2138279021756348e+16
14162866.162991975   1.1777910690083192e+16
14393226.447194064   1.1428210941120856e+16
14627333.5620113   1.1088864702230964e+16
14865248.449978571   1.0759566185655728e+16
15107033.044866556   1.0440018615444324e+16
15352750.28780421   1.0129933962395432e+16
15602464.143663712   9829032686780732.0
15856239.61771137   9537043488622326.0
16114142.772530198   9253703065300940.0
16376240.74521689   8978755876282211.0
16642601.764859019   8711953914750780.0
16913295.170296505   8453056485950383.0
17188391.428171456   8201829992033814.0
17467962.151272457   7958047723230684.0
17752080.11717636   7721489655149326.0
18040819.28719381   7491942252031828.0
18334254.825622927   7269198275788052.0
18632463.1193156   7053056600639736.0
18935521.797562953   6843322033208926.0
19243509.75230332   6639805137892624.0
19556507.15865947   6442322067367435.0
19874595.495809857   6250694398074254.0
20197857.568198785   6064748970537287.0
20526377.52709252   5884317734374645.0
20860240.89248505   5709237597864072.0
21199534.57536069   5539350281929319.0
21544346.900318865   5374502178417824.0
21894767.628566206   5214544212544032.0
22250887.981283695   5059331709375488.0
22612800.663372796   4908724264243967.0
22980599.887588486   4762585616965706.0
23354381.399064817   4620783529759387.0
23734242.50023866   4483189668753434.0
24120282.07618007   4349679488976768.5
24512600.6203334   4220132122731569.5
24911300.26067786   4094430271248130.5
25316484.786313582   3972460099525685.5
25728259.67447932   3854111134266046.0
26146732.11801092   3739276164808496.5
26572011.053245068   3627851146978718.0
27004207.1883777   3519735109765546.5
27443433.032283682   3414830064742787.0
27889802.923804395   3313040918155676.5
28343433.061513092   3214275385593233.0
28804441.53396298   3118443909171233.0
29272948.35042813   3025459577151540.0
29749075.472144436   2935238045926462.0
30232946.844057765   2847697464298849.5
30724688.427090034   2762758399990049.0
31224428.230928577   2680343768310819.0
31732296.34734973   2600378762931288.0
32248424.984084453   2522790788688383.5
32772948.49923382   2447509396371120.5
33306003.436245885   2374466219425160.0
33847728.55945983   2303594912520806.5
34398264.89022921   2234831091929271.0
34957755.743632786   2168112277654225.5
35526346.765781395   2103377837267211.5
36104185.97173338   2040568931396465.5
36691423.78402494   1979628460821010.8
37288213.0718283   1920501015122512.8
37894709.19074672   1863132822849219.0
38511070.02325569   1807471703147671.2
39137456.01980384   1753467018818729.2
39774030.240580365   1701069630756427.5
40420958.39796302   1650231853728704.0
41078408.89965651   1600907413460673.0
41746552.89253135   1553051404982242.5
42425564.307177775   1506620252202631.0
43115619.90318228   1461571668676051.2
43816899.31514186   1417864619523254.0
44529585.0994266   1375459284475060.5
45253862.78170167   1334317022004964.5
45989920.90522438   1294400334518538.2
46737951.079924636   1255672834568849.0
47498148.032284945   1218099212067497.8
48270709.656031884   1181645202462044.0
49055837.06365045   1146277555851502.8
49853734.63873894   1111964007012090.5
50664610.089212686   1078673246306696.8
51488674.50137487   1046374891451886.5
52326142.394866675   1015039460117273.8
53177231.77850967   984638343332837.4
54042164.20705915   955143779680238.6
54921164.838877894   926528830245268.2
55814462.49454955   898767354308870.9
56722289.71644549   871833985755060.0
57644882.82925873   845704110174685.5
58582482.00152536   820353842644424.1
59535331.3081437   795760006161291.1
60503678.79391212   771900110713243.5
61487776.538100295   748752332967193.0
62487880.72006888   726295496556305.4
63504251.68595962   704509052948809.5
64537154.01646702   683373062881355.1
65586856.59571422   662868178340166.8
66653632.6812492   642975625073913.5
67737759.97517745   623677185622672.5
68839520.69645496   604955182847685.5
69959201.65435374   586792463947276.9
71097094.32312424   569172384944527.0
72253494.91787222   552078795632832.75
73428704.47166757   535496024965899.4
74623028.91391107   519408866878990.56
75836779.1499719   503802566528831.3
77070271.14212288   488662806939749.75
78323825.99179204   473975696044113.5
79597770.02314977   459727754105479.25
80892434.86805938   445905901513094.0
82208157.5524054   432497446936900.9
83545280.58382854   419490075832353.9
84904152.04088755   406871839284752.9
86285125.66366887   394631143183123.44
87688560.94587426   382756737713856.8
89114823.22840202   371237707164765.0
90564283.79445294   360063460030340.56
92037319.9661823   349223719409364.5
93534315.20292377   338708513686248.2
95055659.20101191   328508167487721.2
96601747.99522646   318613292906777.4
98172984.06188841   309014780985968.25
99769776.42363212   299703793452412.75
101392540.75588143   290671754697094.5
103041699.49505854   281910343991240.75
104717681.94855203   273411487932792.94
106420924.40647268   265167353116186.8
108151870.25522892   257170339018837.0
109910970.09294961   249413071097945.88
111698681.84678249   241888394091438.38
113515470.8920999   234589365516993.2
115361810.17364761   227509249363306.22
117238180.32865998   220641509967950.53
119145069.81197748   213979806076306.25
121082975.0232037   207517985076202.0
123052400.43592615   201250077403116.25
125053858.72903939   195170291110881.06
127087870.92020595   189273006603005.5
129154966.50148827   183552771519878.94
131255683.57718454   178004295777261.3
133390569.00390586   172622446751587.5
135560178.5329366   167402244607738.94
137765076.9549055   162338857765099.7
140005838.2468096   157427598497803.25
142283045.7214349   152663918665192.06
144597292.17920196   148043405568673.06
146949180.06248203   143561777931218.53
149339321.61242533   139214881995889.9
151768339.02834037   134998687739871.39
154236864.62966305   130909285200608.53
156745541.0205595   126942880910733.72
159295021.25721198   123095794438556.5
161885969.0178199   119364455031018.14
164519058.77536607   115745398356072.17
167194975.9731992   112235263341546.61
169914417.2034626   108830789107657.44
172678090.38843596   105528811990379.03
175486714.9648152   102326262653014.66
178341022.07100064   99220163283332.69
181241754.73742396   96207624873762.5
184189668.07997108   93285844582183.16
187185529.49655753   90452103170919.56
190230118.86689457   87703762521644.66
193324228.7555043   85038263223938.16
196468664.61804485   82453122235317.25
199664245.01097932   79945930610641.97
202911801.80466822   77514351298824.16
206212180.39991444   75156117004870.3
209566239.94804308   72869028115305.97
212974853.57455233   70650950685123.0
216438908.60640204   68499814484423.55
219959306.80300704   66413611102990.234
